0
-0.342987060546875
-0.387664794921875
-0.430603027343750
-0.472137451171875
-0.511535644531250
-0.549194335937500
-0.584442138671875
-0.617645263671875
-0.648162841796875
-0.676330566406250
-0.701782226562500
-0.724395751953125
-0.744323730468750
-0.761169433593750
-0.775146484375000
-0.785980224609375
-0.793823242187500
-0.798431396484375
-0.800018310546875
-0.798370361328125
-0.793670654296875
-0.785766601562500
-0.774871826171875
-0.760803222656250
-0.743896484375000
-0.723937988281250
-0.701232910156250
-0.675689697265625
-0.647521972656250
-0.616912841796875
-0.583648681640625
-0.548370361328125
-0.510650634765625
-0.471221923828125
-0.429687500000000
-0.386596679687500
-0.342010498046875
-0.295867919921875
-0.248992919921875
-0.200561523437500
-0.151947021484375
-0.102172851562500
-0.0525207519531250
-0.00219726562500000
0.0478210449218750
0.0978088378906250
0.147277832031250
0.196350097656250
0.244415283203125
0.291870117187500
0.337707519531250
0.382720947265625
0.425750732421875
0.467559814453125
0.507171630859375
0.544952392578125
0.580657958984375
0.613830566406250
0.644958496093750
0.673217773437500
0.699005126953125
0.722015380859375
0.742156982421875
0.759429931640625
0.773712158203125
0.784881591796875
0.793121337890625
0.798004150390625
0.800079345703125
0.798645019531250
0.794433593750000
0.786773681640625
0.776245117187500
0.762634277343750
0.745880126953125
0.726409912109375
0.703918457031250
0.678741455078125
0.650878906250000
0.620483398437500
0.587554931640625
0.552490234375000
0.515075683593750
0.475738525390625
0.434539794921875
0.391510009765625
0.347229003906250
0.301147460937500
0.254364013671875
0.206115722656250
0.157470703125000
0.107910156250000
0.0581359863281250
0.00790405273437500
-0.0420532226562500
-0.0922241210937500
-0.141632080078125
-0.190856933593750
-0.239013671875000
-0.286468505859375
-0.332611083984375
-0.377624511718750
-0.421020507812500
-0.462829589843750
-0.502807617187500
-0.540771484375000
-0.576629638671875
-0.610290527343750
-0.641479492187500
-0.670166015625000
-0.696197509765625
-0.719543457031250
-0.739990234375000
-0.757690429687500
-0.772155761718750
-0.783843994140625
-0.792266845703125
-0.797668457031250
-0.799957275390625
-0.798980712890625
-0.795074462890625
-0.787780761718750
-0.777618408203125
-0.764282226562500
-0.748016357421875
-0.728668212890625
-0.706695556640625
-0.681671142578125
-0.654205322265625
-0.624084472656250
-0.591369628906250
-0.556640625000000
-0.519348144531250
-0.480407714843750
-0.439208984375000
-0.396606445312500
-0.352172851562500
-0.306579589843750
-0.259643554687500
-0.211700439453125
-0.163024902343750
-0.113555908203125
-0.0637817382812500
-0.0137023925781250
0.0365295410156250
0.0863952636718750
0.136138916015625
0.185211181640625
0.233612060546875
0.281127929687500
0.327484130859375
0.372497558593750
0.416229248046875
0.458129882812500
0.498321533203125
0.536651611328125
0.572601318359375
0.606628417968750
0.638000488281250
0.667053222656250
0.693389892578125
0.717041015625000
0.737823486328125
0.755737304687500
0.770782470703125
0.782531738281250
0.791595458984375
0.797149658203125
0.799835205078125
0.799377441406250
0.795471191406250
0.788940429687500
0.778839111328125
0.766021728515625
0.749938964843750
0.731079101562500
0.709259033203125
0.684753417968750
0.657379150390625
0.627685546875000
0.595153808593750
0.560760498046875
0.523651123046875
0.484954833984375
0.443969726562500
0.401550292968750
0.357238769531250
0.311920166015625
0.264923095703125
0.217315673828125
0.168487548828125
0.119232177734375
0.0694885253906250
0.0193176269531250
-0.0307312011718750
-0.0807800292968750
-0.130523681640625
-0.179656982421875
-0.228179931640625
-0.275787353515625
-0.322204589843750
-0.367523193359375
-0.411315917968750
-0.453460693359375
-0.493865966796875
-0.532379150390625
-0.568634033203125
-0.602874755859375
-0.634582519531250
-0.663879394531250
-0.690490722656250
-0.714569091796875
-0.735504150390625
-0.753967285156250
-0.769134521484375
-0.781402587890625
-0.790679931640625
-0.796691894531250
-0.799713134765625
-0.799499511718750
-0.796203613281250
-0.789733886718750
-0.780181884765625
-0.767639160156250
-0.751861572265625
-0.733428955078125
-0.711853027343750
-0.687652587890625
-0.660675048828125
-0.631103515625000
-0.599090576171875
-0.564605712890625
-0.528167724609375
-0.489257812500000
-0.448883056640625
-0.406311035156250
-0.362487792968750
-0.316986083984375
-0.270446777343750
-0.222686767578125
-0.174133300781250
-0.124816894531250
-0.0751647949218750
-0.0250244140625000
0.0250244140625000
0.0751342773437500
0.124847412109375
0.174194335937500
0.222595214843750
0.270538330078125
0.316894531250000
0.362548828125000
0.406280517578125
0.448883056640625
0.489318847656250
0.528076171875000
0.564697265625000
0.599029541015625
0.631134033203125
0.660675048828125
0.687622070312500
0.711914062500000
0.733367919921875
0.751892089843750
0.767669677734375
0.780120849609375
0.789794921875000
0.796173095703125
0.799499511718750
0.799713134765625
0.796722412109375
0.790649414062500
0.781372070312500
0.769256591796875
0.753814697265625
0.735656738281250
0.714477539062500
0.690490722656250
0.663909912109375
0.634582519531250
0.602844238281250
0.568664550781250
0.532379150390625
0.493835449218750
0.453521728515625
0.411254882812500
0.367523193359375
0.322265625000000
0.275726318359375
0.228240966796875
0.179595947265625
0.130584716796875
0.0806884765625000
0.0308532714843750
-0.0194396972656250
-0.0693969726562500
-0.119232177734375
-0.168609619140625
-0.217163085937500
-0.265075683593750
-0.311767578125000
-0.357330322265625
-0.401519775390625
-0.444000244140625
-0.484863281250000
-0.523803710937500
-0.560546875000000
-0.595397949218750
-0.627471923828125
-0.657531738281250
-0.684661865234375
-0.709289550781250
-0.731048583984375
-0.750030517578125
-0.765899658203125
-0.778991699218750
-0.788726806640625
-0.795684814453125
-0.799255371093750
-0.799835205078125
-0.797241210937500
-0.791442871093750
-0.782684326171875
-0.770690917968750
-0.755737304687500
-0.737884521484375
-0.717010498046875
-0.693389892578125
-0.667053222656250
-0.638031005859375
-0.606536865234375
-0.572753906250000
-0.536529541015625
-0.498382568359375
-0.458129882812500
-0.416198730468750
-0.372528076171875
-0.327484130859375
-0.281097412109375
-0.233642578125000
-0.185211181640625
-0.136138916015625
-0.0864257812500000
-0.0364685058593750
0.0136718750000000
0.0637817382812500
0.113525390625000
0.163085937500000
0.211608886718750
0.259796142578125
0.306396484375000
0.352325439453125
0.396484375000000
0.439331054687500
0.480316162109375
0.519409179687500
0.556579589843750
0.591430664062500
0.624053955078125
0.654205322265625
0.681701660156250
0.706665039062500
0.728698730468750
0.747985839843750
0.764312744140625
0.777587890625000
0.787841796875000
0.795013427734375
0.798980712890625
0.799987792968750
0.797637939453125
0.792297363281250
0.783843994140625
0.772125244140625
0.757720947265625
0.739929199218750
0.719604492187500
0.696166992187500
0.670196533203125
0.641448974609375
0.610290527343750
0.576629638671875
0.540802001953125
0.502777099609375
0.462829589843750
0.421051025390625
0.377563476562500
0.332672119140625
0.286407470703125
0.239105224609375
0.190765380859375
0.141693115234375
0.0921630859375000
0.0421142578125000
-0.00796508789062500
-0.0580444335937500
-0.108032226562500
-0.157287597656250
-0.206329345703125
-0.254180908203125
-0.301330566406250
-0.347045898437500
-0.391632080078125
-0.434478759765625
-0.475769042968750
-0.515106201171875
-0.552429199218750
-0.587585449218750
-0.620483398437500
-0.650878906250000
-0.678710937500000
-0.704010009765625
-0.726257324218750
-0.746063232421875
-0.762481689453125
-0.776306152343750
-0.786804199218750
-0.794342041015625
-0.798767089843750
-0.799926757812500
-0.798156738281250
-0.792999267578125
-0.784973144531250
-0.773651123046875
-0.759429931640625
-0.742187500000000
-0.721984863281250
-0.699035644531250
-0.673217773437500
-0.644897460937500
-0.613891601562500
-0.580627441406250
-0.544952392578125
-0.507232666015625
-0.467437744140625
-0.425872802734375
-0.382598876953125
-0.337860107421875
-0.291717529296875
-0.244506835937500
-0.196319580078125
-0.147308349609375
-0.0977783203125000
-0.0478515625000000
0.00228881835937500
0.0523681640625000
0.102294921875000
0.151855468750000
0.200683593750000
0.248870849609375
0.295928955078125
0.342010498046875
0.386535644531250
0.429779052734375
0.471160888671875
0.510650634765625
0.548400878906250
0.583648681640625
0.616882324218750
0.647521972656250
0.675750732421875
0.701141357421875
0.724029541015625
0.743804931640625
0.760894775390625
0.774810791015625
0.785797119140625
0.793640136718750
0.798400878906250
0.799987792968750
0.798492431640625
0.793762207031250
0.786010742187500
0.775146484375000
0.761138916015625
0.744323730468750
0.724426269531250
0.701782226562500
0.676269531250000
0.648284912109375
0.617462158203125
0.584594726562500
0.549102783203125
0.511566162109375
0.472167968750000
0.430541992187500
0.387695312500000
0.342956542968750
0.297058105468750
0.249908447265625
0.201812744140625
0.152954101562500
0.103363037109375
0.0536499023437500
0.00329589843750000
-0.0466308593750000
-0.0966491699218750
-0.146270751953125
-0.195098876953125
-0.243530273437500
-0.290588378906250
-0.336853027343750
-0.381591796875000
-0.424896240234375
-0.466552734375000
-0.506286621093750
-0.544219970703125
-0.579681396484375
-0.613342285156250
-0.644073486328125
-0.672729492187500
-0.698394775390625
-0.721527099609375
-0.741729736328125
-0.759094238281250
-0.773406982421875
-0.784637451171875
-0.793029785156250
-0.797851562500000
-0.800140380859375
-0.798645019531250
-0.794586181640625
-0.786987304687500
-0.776550292968750
-0.762878417968750
-0.746398925781250
-0.726806640625000
-0.704528808593750
-0.679321289062500
-0.651519775390625
-0.621185302734375
-0.588409423828125
-0.553222656250000
-0.516052246093750
-0.476531982421875
-0.435577392578125
-0.392517089843750
-0.348175048828125
-0.302307128906250
-0.255340576171875
-0.207275390625000
-0.158599853515625
-0.109008789062500
-0.0592651367187500
-0.00909423828125000
0.0410156250000000
0.0909729003906250
0.140625000000000
0.189636230468750
0.238006591796875
0.285339355468750
0.331634521484375
0.376617431640625
0.419982910156250
0.461975097656250
0.501831054687500
0.540008544921875
0.575805664062500
0.609588623046875
0.640716552734375
0.669616699218750
0.695556640625000
0.719116210937500
0.739532470703125
0.757293701171875
0.771881103515625
0.783599853515625
0.792083740234375
0.797668457031250
0.799804687500000
0.799194335937500
0.795043945312500
0.788116455078125
0.777801513671875
0.764678955078125
0.748321533203125
0.729248046875000
0.707183837890625
0.682281494140625
0.654876708984375
0.624725341796875
0.592224121093750
0.557373046875000
0.520324707031250
0.481201171875000
0.440277099609375
0.397491455078125
0.353302001953125
0.307525634765625
0.260803222656250
0.212768554687500
0.164123535156250
0.114746093750000
0.0648498535156250
0.0148620605468750
-0.0353698730468750
-0.0852661132812500
-0.135040283203125
-0.184082031250000
-0.232574462890625
-0.280029296875000
-0.326385498046875
-0.371612548828125
-0.415130615234375
-0.457336425781250
-0.497314453125000
-0.535888671875000
-0.571746826171875
-0.605957031250000
-0.637237548828125
-0.666473388671875
-0.692810058593750
-0.716491699218750
-0.737457275390625
-0.755310058593750
-0.770477294921875
-0.782348632812500
-0.791351318359375
-0.797119140625000
-0.799774169921875
-0.799407958984375
-0.795654296875000
-0.789093017578125
-0.779083251953125
-0.766387939453125
-0.750274658203125
-0.731597900390625
-0.709777832031250
-0.685302734375000
-0.658111572265625
-0.628265380859375
-0.596038818359375
-0.561431884765625
-0.524658203125000
-0.485748291015625
-0.445007324218750
-0.402435302734375
-0.358337402343750
-0.312927246093750
-0.266021728515625
-0.218383789062500
-0.169647216796875
-0.120330810546875
-0.0706176757812500
-0.0204772949218750
0.0295715332031250
0.0797119140625000
0.129333496093750
0.178588867187500
0.227081298828125
0.274688720703125
0.321166992187500
0.366577148437500
0.410217285156250
0.452636718750000
0.492919921875000
0.531494140625000
0.567901611328125
0.602050781250000
0.633941650390625
0.663208007812500
0.689971923828125
0.713958740234375
0.735168457031250
0.753509521484375
0.768798828125000
0.781280517578125
0.790374755859375
0.796691894531250
0.799652099609375
0.799499511718750
0.796356201171875
0.789886474609375
0.780487060546875
0.767883300781250
0.752319335937500
0.733856201171875
0.712371826171875
0.688232421875000
0.661315917968750
0.631774902343750
0.599884033203125
0.565429687500000
0.528961181640625
0.490234375000000
0.449737548828125
0.407409667968750
0.363372802734375
0.318176269531250
0.271392822265625
0.223846435546875
0.175231933593750
0.125976562500000
0.0762329101562500
0.0262756347656250
-0.0240173339843750
-0.0739135742187500
-0.123748779296875
-0.173065185546875
-0.221527099609375
-0.269409179687500
-0.315917968750000
-0.361450195312500
-0.405395507812500
-0.447875976562500
-0.488403320312500
-0.527282714843750
-0.563781738281250
-0.598419189453125
-0.630310058593750
-0.660095214843750
-0.687011718750000
-0.711395263671875
-0.732910156250000
-0.751556396484375
-0.767242431640625
-0.779968261718750
-0.789520263671875
-0.796112060546875
-0.799468994140625
-0.799713134765625
-0.796844482421875
-0.790802001953125
-0.781677246093750
-0.769500732421875
-0.754211425781250
-0.736114501953125
-0.714965820312500
-0.691131591796875
-0.664520263671875
-0.635223388671875
-0.603668212890625
-0.569396972656250
-0.533264160156250
-0.494750976562500
-0.454406738281250
-0.412322998046875
-0.368408203125000
-0.323455810546875
-0.276641845703125
-0.229431152343750
-0.180694580078125
-0.131622314453125
-0.0819702148437500
-0.0318603515625000
0.0182189941406250
0.0683288574218750
0.118072509765625
0.167510986328125
0.216033935546875
0.264007568359375
0.310760498046875
0.356262207031250
0.400573730468750
0.443023681640625
0.484008789062500
0.522857666015625
0.559844970703125
0.594482421875000
0.626892089843750
0.656829833984375
0.684051513671875
0.708801269531250
0.730590820312500
0.749542236328125
0.765716552734375
0.778533935546875
0.788757324218750
0.795379638671875
0.799346923828125
0.799804687500000
0.797302246093750
0.791687011718750
0.782836914062500
0.771026611328125
0.756164550781250
0.738250732421875
0.717559814453125
0.693908691406250
0.667724609375000
0.638641357421875
0.607391357421875
0.573455810546875
0.537414550781250
0.499237060546875
0.459106445312500
0.417114257812500
0.373626708984375
0.328460693359375
0.282196044921875
0.234680175781250
0.186370849609375
0.137237548828125
0.0875854492187500
0.0375976562500000
-0.0125427246093750
-0.0626525878906250
-0.112396240234375
-0.161956787109375
-0.210510253906250
-0.258728027343750
-0.305328369140625
-0.351348876953125
-0.395446777343750
-0.438385009765625
-0.479370117187500
-0.518615722656250
-0.555725097656250
-0.590667724609375
-0.623352050781250
-0.653472900390625
-0.681213378906250
-0.705993652343750
-0.728363037109375
-0.747497558593750
-0.764007568359375
-0.777313232421875
-0.787628173828125
-0.794891357421875
-0.798980712890625
-0.799926757812500
-0.797790527343750
-0.792449951171875
-0.783966064453125
-0.772613525390625
-0.757873535156250
-0.740600585937500
-0.719848632812500
-0.696960449218750
-0.670593261718750
-0.642303466796875
-0.610931396484375
-0.577453613281250
-0.541625976562500
-0.503692626953125
-0.463714599609375
-0.422058105468750
-0.378570556640625
-0.333679199218750
-0.287536621093750
-0.240112304687500
-0.191894531250000
-0.142852783203125
-0.0932617187500000
-0.0432739257812500
0.00680541992187500
0.0570068359375000
0.106750488281250
0.156372070312500
0.205017089843750
0.253265380859375
0.300140380859375
0.346130371093750
0.390594482421875
0.433502197265625
0.474914550781250
0.514129638671875
0.551696777343750
0.586791992187500
0.619720458984375
0.650268554687500
0.678070068359375
0.703430175781250
0.725891113281250
0.745513916015625
0.762268066406250
0.775909423828125
0.786651611328125
0.794219970703125
0.798675537109375
0.799987792968750
0.798156738281250
0.793182373046875
0.785186767578125
0.773956298828125
0.759796142578125
0.742614746093750
0.722412109375000
0.699676513671875
0.673736572265625
0.645660400390625
0.614562988281250
0.581451416015625
0.545745849609375
0.508148193359375
0.468353271484375
0.426818847656250
0.383636474609375
0.338867187500000
0.292755126953125
0.245666503906250
0.197326660156250
0.148498535156250
0.0989074707031250
0.0489501953125000
-0.00112915039062500
-0.0512390136718750
-0.101226806640625
-0.150604248046875
-0.199676513671875
-0.247711181640625
-0.294982910156250
-0.340881347656250
-0.385650634765625
-0.428680419921875
-0.470306396484375
-0.509826660156250
-0.547454833984375
-0.582977294921875
-0.616058349609375
-0.646972656250000
-0.675018310546875
-0.700714111328125
-0.723419189453125
-0.743469238281250
-0.760528564453125
-0.774505615234375
-0.785583496093750
-0.793518066406250
-0.798309326171875
-0.799987792968750
-0.798583984375000
-0.793853759765625
-0.786285400390625
-0.775360107421875
-0.761535644531250
-0.744720458984375
-0.724914550781250
-0.702301025390625
-0.676971435546875
-0.648773193359375
-0.618408203125000
-0.585205078125000
-0.549987792968750
-0.512512207031250
-0.472900390625000
-0.431732177734375
-0.388549804687500
-0.344024658203125
-0.298126220703125
-0.250946044921875
-0.203002929687500
-0.153991699218750
-0.104583740234375
-0.0546569824218750
-0.00454711914062500
0.0455322265625000
0.0955200195312500
0.145111083984375
0.194061279296875
0.242370605468750
0.289581298828125
0.335784912109375
0.380615234375000
0.423889160156250
0.465667724609375
0.505401611328125
0.543334960937500
0.579010009765625
0.612487792968750
0.643463134765625
0.672088623046875
0.697845458984375
0.721038818359375
0.741333007812500
0.758666992187500
0.773162841796875
0.784423828125000
0.792816162109375
0.797882080078125
0.799987792968750
0.798858642578125
0.794586181640625
0.787322998046875
0.776702880859375
0.763305664062500
0.746765136718750
0.727294921875000
0.705047607421875
0.679901123046875
0.652252197265625
0.621826171875000
0.589233398437500
0.554016113281250
0.516876220703125
0.477569580078125
0.436401367187500
0.393615722656250
0.349121093750000
0.303405761718750
0.256408691406250
0.208374023437500
0.159759521484375
0.110046386718750
0.0605163574218750
0.0101318359375000
-0.0397949218750000
-0.0899047851562500
-0.139465332031250
-0.188568115234375
-0.236846923828125
-0.284332275390625
-0.330566406250000
-0.375610351562500
-0.419067382812500
-0.460937500000000
-0.501068115234375
-0.539031982421875
-0.575164794921875
-0.608703613281250
-0.640167236328125
-0.668853759765625
-0.695159912109375
-0.718475341796875
-0.739196777343750
-0.756866455078125
-0.771575927734375
-0.783447265625000
-0.791870117187500
-0.797546386718750
-0.799896240234375
-0.799102783203125
-0.795318603515625
-0.788177490234375
-0.778167724609375
-0.764923095703125
-0.748840332031250
-0.729644775390625
-0.707672119140625
-0.682952880859375
-0.655456542968750
-0.625518798828125
-0.592956542968750
-0.558197021484375
-0.521148681640625
-0.482147216796875
-0.441192626953125
-0.398559570312500
-0.354217529296875
-0.308715820312500
-0.261688232421875
-0.214050292968750
-0.165100097656250
-0.115997314453125
-0.0658874511718750
-0.0160522460937500
0.0342407226562500
0.0841979980468750
0.133789062500000
0.183074951171875
0.231414794921875
0.278991699218750
0.325347900390625
0.370605468750000
0.414123535156250
0.456390380859375
0.496490478515625
0.534912109375000
0.571105957031250
0.605072021484375
0.636657714843750
0.665802001953125
0.692199707031250
0.716064453125000
0.736907958984375
0.755065917968750
0.770050048828125
0.782226562500000
0.791076660156250
0.797088623046875
0.799713134765625
0.799468994140625
0.795776367187500
0.789276123046875
0.779327392578125
0.766723632812500
0.750671386718750
0.732086181640625
0.710235595703125
0.685943603515625
0.658721923828125
0.628997802734375
0.596801757812500
0.562255859375000
0.525451660156250
0.486724853515625
0.445892333984375
0.403472900390625
0.359375000000000
0.313873291015625
0.267211914062500
0.219390869140625
0.170776367187500
0.121490478515625
0.0717163085937500
0.0216674804687500
-0.0285034179687500
-0.0785217285156250
-0.128234863281250
-0.177459716796875
-0.225982666015625
-0.273620605468750
-0.320159912109375
-0.365509033203125
-0.409271240234375
-0.451660156250000
-0.492034912109375
-0.530639648437500
-0.567138671875000
-0.601287841796875
-0.633209228515625
-0.662597656250000
-0.689361572265625
-0.713500976562500
-0.734649658203125
-0.753204345703125
-0.768432617187500
-0.781036376953125
-0.790222167968750
-0.796539306640625
-0.799652099609375
-0.799530029296875
-0.796508789062500
-0.789947509765625
-0.780883789062500
-0.768066406250000
-0.752838134765625
-0.734191894531250
-0.712982177734375
-0.688751220703125
-0.662017822265625
-0.632446289062500
-0.600616455078125
-0.566284179687500
-0.529754638671875
-0.491210937500000
-0.450653076171875
-0.408325195312500
-0.364501953125000
-0.319091796875000
-0.272552490234375
-0.224945068359375
-0.176239013671875
-0.127258300781250
-0.0772399902343750
-0.0274658203125000
0.0228881835937500
0.0727844238281250
0.122619628906250
0.171936035156250
0.220428466796875
0.268371582031250
0.314849853515625
0.360443115234375
0.404418945312500
0.446868896484375
0.487609863281250
0.526306152343750
0.563110351562500
0.597503662109375
0.629760742187500
0.659301757812500
0.686584472656250
0.710754394531250
0.732482910156250
0.751190185546875
0.766876220703125
0.779754638671875
0.789337158203125
0.795989990234375
0.799377441406250
0.799835205078125
0.796844482421875
0.791046142578125
0.781890869140625
0.769775390625000
0.754669189453125
0.736480712890625
0.715545654296875
0.691619873046875
0.665191650390625
0.635955810546875
0.604309082031250
0.570343017578125
0.533996582031250
0.495697021484375
0.455352783203125
0.413238525390625
0.369537353515625
0.324340820312500
0.277893066406250
0.230377197265625
0.181884765625000
0.132751464843750
0.0830383300781250
0.0330505371093750
-0.0170898437500000
-0.0671691894531250
-0.117004394531250
-0.166259765625000
-0.215118408203125
-0.262786865234375
-0.309783935546875
-0.355224609375000
-0.399566650390625
-0.442077636718750
-0.483123779296875
-0.521972656250000
-0.559051513671875
-0.593688964843750
-0.626251220703125
-0.656097412109375
-0.683502197265625
-0.708282470703125
-0.730041503906250
-0.749298095703125
-0.765197753906250
-0.778472900390625
-0.788391113281250
-0.795379638671875
-0.799224853515625
-0.799804687500000
-0.797485351562500
-0.791748046875000
-0.783172607421875
-0.771240234375000
-0.756591796875000
-0.738647460937500
-0.718078613281250
-0.694488525390625
-0.668273925781250
-0.639495849609375
-0.607971191406250
-0.574371337890625
-0.538146972656250
-0.500213623046875
-0.459991455078125
-0.418151855468750
-0.374511718750000
-0.329620361328125
-0.283172607421875
-0.235839843750000
-0.187438964843750
-0.138336181640625
-0.0887451171875000
-0.0387573242187500
0.0114440917968750
0.0614318847656250
0.111389160156250
0.160705566406250
0.209594726562500
0.257385253906250
0.304534912109375
0.350097656250000
0.394653320312500
0.437286376953125
0.478576660156250
0.517639160156250
0.554931640625000
0.589965820312500
0.622497558593750
0.652984619140625
0.680450439453125
0.705596923828125
0.727813720703125
0.747100830078125
0.763702392578125
0.776977539062500
0.787475585937500
0.794769287109375
0.798889160156250
0.799987792968750
0.797821044921875
0.792633056640625
0.784210205078125
0.772857666015625
0.758300781250000
0.740936279296875
0.720489501953125
0.697357177734375
0.671386718750000
0.642852783203125
0.611724853515625
0.578216552734375
0.542510986328125
0.504486083984375
0.464813232421875
0.422790527343750
0.379760742187500
0.334594726562500
0.288635253906250
0.241241455078125
0.192962646484375
0.143951416015625
0.0944519042968750
0.0443420410156250
-0.00564575195312500
-0.0558166503906250
-0.105712890625000
-0.155120849609375
-0.204071044921875
-0.252075195312500
-0.299163818359375
-0.345031738281250
-0.389587402343750
-0.432647705078125
-0.473846435546875
-0.513397216796875
-0.550811767578125
-0.585968017578125
-0.619110107421875
-0.649444580078125
-0.677612304687500
-0.702819824218750
-0.725433349609375
-0.745056152343750
-0.761932373046875
-0.775665283203125
-0.786437988281250
-0.794067382812500
-0.798553466796875
-0.800048828125000
-0.798217773437500
-0.793395996093750
-0.785308837890625
-0.774322509765625
-0.760070800781250
-0.743072509765625
-0.722961425781250
-0.700134277343750
-0.674468994140625
-0.646209716796875
-0.615386962890625
-0.582153320312500
-0.546661376953125
-0.508972167968750
-0.469238281250000
-0.427917480468750
-0.384490966796875
-0.339965820312500
-0.293853759765625
-0.246643066406250
-0.198547363281250
-0.149536132812500
-0.100067138671875
-0.0501098632812500
0
0.0501098632812500
0.100097656250000
0.149475097656250
0.198608398437500
0.246582031250000
0.293914794921875
0.339904785156250
0.384582519531250
0.427795410156250
0.469329833984375
0.508941650390625
0.546661376953125
0.582153320312500
0.615356445312500
0.646270751953125
0.674438476562500
0.700103759765625
0.723022460937500
0.742950439453125
0.760223388671875
0.774200439453125
0.785400390625000
0.793334960937500
0.798278808593750
0.799926757812500
0.798675537109375
0.794036865234375
0.786437988281250
0.775695800781250
0.761840820312500
0.745147705078125
0.725433349609375
0.702819824218750
0.677551269531250
0.649505615234375
0.619049072265625
0.586059570312500
0.550781250000000
0.513366699218750
0.473876953125000
0.432647705078125
0.389556884765625
0.345092773437500
0.299102783203125
0.252136230468750
0.203979492187500
0.155212402343750
0.105651855468750
0.0558471679687500
0.00564575195312500
-0.0443725585937500
-0.0944519042968750
-0.143920898437500
-0.192993164062500
-0.241241455078125
-0.288543701171875
-0.334747314453125
-0.379608154296875
-0.422943115234375
-0.464660644531250
-0.504638671875000
-0.542358398437500
-0.578338623046875
-0.611663818359375
-0.642852783203125
-0.671417236328125
-0.697326660156250
-0.720489501953125
-0.740966796875000
-0.758270263671875
-0.772857666015625
-0.784210205078125
-0.792633056640625
-0.797851562500000
-0.799957275390625
-0.798919677734375
-0.794677734375000
-0.787536621093750
-0.776977539062500
-0.763671875000000
-0.747161865234375
-0.727783203125000
-0.705535888671875
-0.680572509765625
-0.652801513671875
-0.622711181640625
-0.589813232421875
-0.554992675781250
-0.517639160156250
-0.478546142578125
-0.437347412109375
-0.394561767578125
-0.350189208984375
-0.304412841796875
-0.257507324218750
-0.209533691406250
-0.160736083984375
-0.111389160156250
-0.0614318847656250
-0.0114135742187500
0.0387268066406250
0.0887451171875000
0.138305664062500
0.187500000000000
0.235748291015625
0.283294677734375
0.329528808593750
0.374542236328125
0.418151855468750
0.459991455078125
0.500183105468750
0.538208007812500
0.574340820312500
0.607971191406250
0.639495849609375
0.668243408203125
0.694519042968750
0.718048095703125
0.738708496093750
0.756530761718750
0.771301269531250
0.783142089843750
0.791748046875000
0.797485351562500
0.799804687500000
0.799255371093750
0.795318603515625
0.788513183593750
0.778320312500000
0.765350341796875
0.749114990234375
0.730194091796875
0.708221435546875
0.683532714843750
0.656097412109375
0.626220703125000
0.593688964843750
0.559082031250000
0.521972656250000
0.483093261718750
0.442108154296875
0.399536132812500
0.355285644531250
0.309661865234375
0.262939453125000
0.214965820312500
0.166381835937500
0.116943359375000
0.0671691894531250
0.0171203613281250
-0.0330505371093750
-0.0830688476562500
-0.132720947265625
-0.181945800781250
-0.230285644531250
-0.277984619140625
-0.324249267578125
-0.369598388671875
-0.413208007812500
-0.455352783203125
-0.495727539062500
-0.533966064453125
-0.570373535156250
-0.604217529296875
-0.636077880859375
-0.665100097656250
-0.691650390625000
-0.715576171875000
-0.736419677734375
-0.754699707031250
-0.769775390625000
-0.781890869140625
-0.791046142578125
-0.796844482421875
-0.799804687500000
-0.799438476562500
-0.795928955078125
-0.789428710937500
-0.779632568359375
-0.766967773437500
-0.751190185546875
-0.732391357421875
-0.710906982421875
-0.686431884765625
-0.659362792968750
-0.629791259765625
-0.597442626953125
-0.563171386718750
-0.526275634765625
-0.487609863281250
-0.446868896484375
-0.404449462890625
-0.360382080078125
-0.314971923828125
-0.268218994140625
-0.220550537109375
-0.171844482421875
-0.122711181640625
-0.0727233886718750
-0.0228881835937500
0.0274047851562500
0.0773620605468750
0.127136230468750
0.176330566406250
0.224914550781250
0.272521972656250
0.319152832031250
0.364440917968750
0.408386230468750
0.450622558593750
0.491180419921875
0.529846191406250
0.566192626953125
0.600646972656250
0.632476806640625
0.661956787109375
0.688781738281250
0.712982177734375
0.734222412109375
0.752777099609375
0.768157958984375
0.780761718750000
0.790039062500000
0.796478271484375
0.799530029296875
0.799682617187500
0.796447753906250
0.790374755859375
0.780853271484375
0.768585205078125
0.753112792968750
0.734710693359375
0.713470458984375
0.689361572265625
0.662567138671875
0.633239746093750
0.601318359375000
0.567108154296875
0.530639648437500
0.492034912109375
0.451660156250000
0.409271240234375
0.365539550781250
0.320129394531250
0.273651123046875
0.225982666015625
0.177429199218750
0.128265380859375
0.0784912109375000
0.0285339355468750
-0.0216674804687500
-0.0717468261718750
-0.121429443359375
-0.170867919921875
-0.219329833984375
-0.267242431640625
-0.313873291015625
-0.359405517578125
-0.403411865234375
-0.445953369140625
-0.486663818359375
-0.525512695312500
-0.562225341796875
-0.596862792968750
-0.628875732421875
-0.658874511718750
-0.685791015625000
-0.710357666015625
-0.732025146484375
-0.750671386718750
-0.766723632812500
-0.779357910156250
-0.789215087890625
-0.795867919921875
-0.799346923828125
-0.799804687500000
-0.797027587890625
-0.791107177734375
-0.782226562500000
-0.770050048828125
-0.755035400390625
-0.736968994140625
-0.715972900390625
-0.692291259765625
-0.665740966796875
-0.636688232421875
-0.605072021484375
-0.571105957031250
-0.534851074218750
-0.496582031250000
-0.456298828125000
-0.414184570312500
-0.370574951171875
-0.325347900390625
-0.279022216796875
-0.231384277343750
-0.183074951171875
-0.133789062500000
-0.0842285156250000
-0.0342102050781250
0.0160217285156250
0.0659484863281250
0.115936279296875
0.165161132812500
0.213958740234375
0.261749267578125
0.308715820312500
0.354248046875000
0.398529052734375
0.441162109375000
0.482177734375000
0.521118164062500
0.558258056640625
0.592956542968750
0.625427246093750
0.655548095703125
0.682861328125000
0.707763671875000
0.729583740234375
0.748901367187500
0.764831542968750
0.778228759765625
0.788177490234375
0.795288085937500
0.799133300781250
0.799865722656250
0.797546386718750
0.791900634765625
0.783447265625000
0.771484375000000
0.757019042968750
0.739044189453125
0.718597412109375
0.695068359375000
0.668884277343750
0.640167236328125
0.608734130859375
0.575134277343750
0.539001464843750
0.501159667968750
0.460815429687500
0.419219970703125
0.375488281250000
0.330627441406250
0.284301757812500
0.236877441406250
0.188598632812500
0.139404296875000
0.0899353027343750
0.0397949218750000
-0.0101623535156250
-0.0604248046875000
-0.110168457031250
-0.159667968750000
-0.208435058593750
-0.256378173828125
-0.303375244140625
-0.349212646484375
-0.393493652343750
-0.436523437500000
-0.477478027343750
-0.516937255859375
-0.554016113281250
-0.589202880859375
-0.621856689453125
-0.652221679687500
-0.679931640625000
-0.705017089843750
-0.727325439453125
-0.746765136718750
-0.763275146484375
-0.776733398437500
-0.787322998046875
-0.794525146484375
-0.798950195312500
-0.799865722656250
-0.798034667968750
-0.792663574218750
-0.784576416015625
-0.773010253906250
-0.758758544921875
-0.741333007812500
-0.720947265625000
-0.697998046875000
-0.671936035156250
-0.643554687500000
-0.612487792968750
-0.578948974609375
-0.543395996093750
-0.505371093750000
-0.465667724609375
-0.423889160156250
-0.380645751953125
-0.335693359375000
-0.289733886718750
-0.242218017578125
-0.194183349609375
-0.145019531250000
-0.0955505371093750
-0.0455322265625000
0.00451660156250000
0.0546875000000000
0.104553222656250
0.154052734375000
0.202941894531250
0.251007080078125
0.298065185546875
0.344024658203125
0.388610839843750
0.431610107421875
0.473052978515625
0.512451171875000
0.549896240234375
0.585388183593750
0.618164062500000
0.649017333984375
0.676818847656250
0.702392578125000
0.724822998046875
0.744781494140625
0.761505126953125
0.775421142578125
0.786224365234375
0.793914794921875
0.798522949218750
0.800018310546875
0.798309326171875
0.793518066406250
0.785583496093750
0.774536132812500
0.760498046875000
0.743438720703125
0.723480224609375
0.700653076171875
0.675109863281250
0.646881103515625
0.616088867187500
0.582977294921875
0.547454833984375
0.509826660156250
0.470275878906250
0.428741455078125
0.385589599609375
0.340942382812500
0.294891357421875
0.247833251953125
0.199523925781250
0.150787353515625
0.101043701171875
0.0513610839843750
0.00112915039062500
-0.0490417480468750
-0.0988159179687500
-0.148559570312500
-0.197326660156250
-0.245635986328125
-0.292785644531250
-0.338867187500000
-0.383575439453125
-0.426910400390625
-0.468292236328125
-0.508178710937500
-0.545776367187500
-0.581359863281250
-0.614685058593750
-0.645507812500000
-0.673889160156250
-0.699554443359375
-0.722503662109375
-0.742584228515625
-0.759796142578125
-0.773956298828125
-0.785186767578125
-0.793121337890625
-0.798278808593750
-0.799896240234375
-0.798706054687500
-0.794219970703125
-0.786590576171875
-0.776000976562500
-0.762237548828125
-0.745483398437500
-0.725952148437500
-0.703308105468750
-0.678222656250000
-0.650177001953125
-0.619720458984375
-0.586883544921875
-0.551544189453125
-0.514312744140625
-0.474761962890625
-0.433563232421875
-0.390594482421875
-0.346099853515625
-0.300201416015625
-0.253143310546875
-0.205139160156250
-0.156311035156250
-0.106781005859375
-0.0569763183593750
-0.00680541992187500
0.0432739257812500
0.0932312011718750
0.142883300781250
0.191833496093750
0.240203857421875
0.287445068359375
0.333740234375000
0.378570556640625
0.421997070312500
0.463775634765625
0.503662109375000
0.541595458984375
0.577514648437500
0.610931396484375
0.642211914062500
0.670745849609375
0.696746826171875
0.720092773437500
0.740417480468750
0.757995605468750
0.772521972656250
0.783966064453125
0.792541503906250
0.797668457031250
0.800018310546875
0.798950195312500
0.794830322265625
0.787719726562500
0.777282714843750
0.763946533203125
0.747619628906250
0.728210449218750
0.706146240234375
0.681091308593750
0.653564453125000
0.623291015625000
0.590698242187500
0.555725097656250
0.518585205078125
0.479370117187500
0.438415527343750
0.395446777343750
0.351287841796875
0.305419921875000
0.258636474609375
0.210571289062500
0.161956787109375
0.112335205078125
0.0627441406250000
0.0124816894531250
-0.0375976562500000
-0.0875549316406250
-0.137268066406250
-0.186309814453125
-0.234741210937500
-0.282135009765625
-0.328552246093750
-0.373535156250000
-0.417144775390625
-0.459106445312500
-0.499206542968750
-0.537445068359375
-0.573486328125000
-0.607330322265625
-0.638671875000000
-0.667755126953125
-0.693847656250000
-0.717620849609375
-0.738250732421875
-0.756103515625000
-0.771087646484375
-0.782836914062500
-0.791625976562500
-0.797363281250000
-0.799804687500000
-0.799255371093750
-0.795532226562500
-0.788574218750000
-0.778686523437500
-0.765625000000000
-0.749542236328125
-0.730682373046875
-0.708679199218750
-0.684173583984375
-0.656738281250000
-0.626922607421875
-0.594482421875000
-0.559844970703125
-0.522857666015625
-0.484008789062500
-0.443054199218750
-0.400512695312500
-0.356292724609375
-0.310791015625000
-0.263885498046875
-0.216217041015625
-0.167358398437500
-0.118164062500000
-0.0682983398437500
-0.0182189941406250
0.0318908691406250
0.0819091796875000
0.131652832031250
0.180725097656250
0.229339599609375
0.276763916015625
0.323333740234375
0.368499755859375
0.412292480468750
0.454406738281250
0.494750976562500
0.533233642578125
0.569396972656250
0.603759765625000
0.635070800781250
0.664703369140625
0.690948486328125
0.715087890625000
0.736022949218750
0.754241943359375
0.769531250000000
0.781616210937500
0.790893554687500
0.796722412109375
0.799835205078125
0.799346923828125
0.796203613281250
0.789459228515625
0.780029296875000
0.767211914062500
0.751556396484375
0.732910156250000
0.711395263671875
0.687011718750000
0.660095214843750
0.630310058593750
0.598419189453125
0.563781738281250
0.527282714843750
0.488403320312500
0.447875976562500
0.405395507812500
0.361450195312500
0.315948486328125
0.269348144531250
0.221588134765625
0.173034667968750
0.123718261718750
0.0740051269531250
0.0238952636718750
-0.0261840820312500
-0.0762329101562500
-0.126068115234375
-0.175140380859375
-0.223876953125000
-0.271423339843750
-0.318115234375000
-0.363403320312500
-0.407440185546875
-0.449676513671875
-0.490264892578125
-0.528991699218750
-0.565368652343750
-0.599945068359375
-0.631744384765625
-0.661315917968750
-0.688232421875000
-0.712432861328125
-0.733734130859375
-0.752441406250000
-0.767822265625000
-0.780517578125000
-0.789855957031250
-0.796386718750000
-0.799438476562500
-0.799774169921875
-0.796539306640625
-0.790496826171875
-0.781219482421875
-0.768798828125000
-0.753509521484375
-0.735198974609375
-0.713928222656250
-0.690002441406250
-0.663177490234375
-0.633911132812500
-0.602111816406250
-0.567871093750000
-0.531494140625000
-0.492950439453125
-0.452575683593750
-0.410247802734375
-0.366607666015625
-0.321105957031250
-0.274749755859375
-0.227050781250000
-0.178558349609375
-0.129394531250000
-0.0796508789062500
-0.0296325683593750
0.0205383300781250
0.0705566406250000
0.120361328125000
0.169677734375000
0.218322753906250
0.266082763671875
0.312896728515625
0.358276367187500
0.402557373046875
0.444915771484375
0.485839843750000
0.524566650390625
0.561462402343750
0.596038818359375
0.628265380859375
0.658172607421875
0.685211181640625
0.709838867187500
0.731536865234375
0.750335693359375
0.766357421875000
0.779113769531250
0.789031982421875
0.795715332031250
0.799377441406250
0.799774169921875
0.797149658203125
0.791290283203125
0.782440185546875
0.770355224609375
0.755462646484375
0.737304687500000
0.716583251953125
0.692810058593750
0.666381835937500
0.637390136718750
0.605804443359375
0.571868896484375
0.535766601562500
0.497436523437500
0.457214355468750
0.415252685546875
0.371490478515625
0.326477050781250
0.279998779296875
0.232543945312500
0.184143066406250
0.134979248046875
0.0853271484375000
0.0353088378906250
-0.0148010253906250
-0.0649108886718750
-0.114715576171875
-0.164093017578125
-0.212829589843750
-0.260742187500000
-0.307586669921875
-0.353271484375000
-0.397521972656250
-0.440185546875000
-0.481323242187500
-0.520233154296875
-0.557434082031250
-0.592193603515625
-0.624694824218750
-0.654937744140625
-0.682250976562500
-0.707214355468750
-0.729156494140625
-0.748413085937500
-0.764617919921875
-0.777893066406250
-0.788024902343750
-0.795074462890625
-0.799194335937500
-0.799804687500000
-0.797668457031250
-0.792114257812500
-0.783508300781250
-0.772003173828125
-0.757171630859375
-0.739654541015625
-0.719024658203125
-0.695617675781250
-0.669555664062500
-0.640777587890625
-0.609527587890625
-0.575897216796875
-0.539916992187500
-0.501953125000000
-0.461822509765625
-0.420104980468750
-0.376586914062500
-0.331573486328125
-0.285430908203125
-0.237945556640625
-0.189666748046875
-0.140625000000000
-0.0909423828125000
-0.0410461425781250
0.00912475585937500
0.0592041015625000
0.109100341796875
0.158508300781250
0.207336425781250
0.255310058593750
0.302337646484375
0.348144531250000
0.392547607421875
0.435516357421875
0.476623535156250
0.515991210937500
0.553253173828125
0.588348388671875
0.621246337890625
0.651489257812500
0.679382324218750
0.704437255859375
0.726837158203125
0.746398925781250
0.762878417968750
0.776580810546875
0.786956787109375
0.794555664062500
0.798736572265625
0.800018310546875
0.798004150390625
0.792877197265625
0.784729003906250
0.773406982421875
0.759033203125000
0.741790771484375
0.721466064453125
0.698486328125000
0.672607421875000
0.644226074218750
0.613159179687500
0.579833984375000
0.544128417968750
0.506317138671875
0.466583251953125
0.424835205078125
0.381652832031250
0.336761474609375
0.290710449218750
0.243408203125000
0.195190429687500
0.146179199218750
0.0967102050781250
0.0466308593750000
-0.00332641601562500
-0.0536193847656250
-0.103393554687500
-0.152954101562500
-0.201782226562500
-0.249938964843750
-0.297058105468750
-0.342956542968750
-0.387664794921875
-0.430603027343750
-0.472137451171875
-0.511535644531250
-0.549224853515625
-0.584411621093750
-0.617614746093750
-0.648193359375000
-0.676330566406250
-0.701751708984375
-0.724456787109375
-0.744262695312500
-0.761169433593750
-0.775177001953125
-0.785949707031250
-0.793823242187500
-0.798461914062500
-0.799987792968750
-0.798400878906250
-0.793640136718750
-0.785797119140625
-0.774810791015625
-0.760925292968750
-0.743743896484375
-0.724090576171875
-0.701080322265625
-0.675811767578125
-0.647491455078125
-0.616882324218750
-0.583679199218750
-0.548339843750000
-0.510711669921875
-0.471130371093750
-0.429779052734375
-0.386535644531250
-0.342010498046875
-0.295959472656250
-0.248840332031250
-0.200683593750000
-0.151885986328125
-0.102233886718750
-0.0524597167968750
-0.00222778320312500
0.0478515625000000
0.0977478027343750
0.147338867187500
0.196258544921875
0.244567871093750
0.291717529296875
0.337799072265625
0.382690429687500
0.425750732421875
0.467590332031250
0.507110595703125
0.545013427734375
0.580566406250000
0.613983154296875
0.644836425781250
0.673248291015625
0.699005126953125
0.721984863281250
0.742218017578125
0.759399414062500
0.773681640625000
0.784912109375000
0.793090820312500
0.798065185546875
0.800018310546875
0.798675537109375
0.794403076171875
0.786804199218750
0.776245117187500
0.762603759765625
0.745880126953125
0.726440429687500
0.703887939453125
0.678771972656250
0.650848388671875
0.620483398437500
0.587554931640625
0.552520751953125
0.515045166015625
0.475738525390625
0.434570312500000
0.391479492187500
0.347259521484375
0.301086425781250
0.254394531250000
0.206146240234375
0.157470703125000
0.107879638671875
0.0581054687500000
0.00796508789062500
-0.0421142578125000
-0.0921630859375000
-0.141693115234375
-0.190795898437500
-0.239044189453125
-0.286407470703125
-0.332733154296875
-0.377532958984375
-0.421051025390625
-0.462799072265625
-0.502807617187500
-0.540771484375000
-0.576721191406250
-0.610168457031250
-0.641540527343750
-0.670135498046875
-0.696197509765625
-0.719573974609375
-0.739990234375000
-0.757629394531250
-0.772247314453125
-0.783752441406250
-0.792327880859375
-0.797637939453125
-0.799987792968750
-0.798980712890625
-0.795043945312500
-0.787780761718750
-0.777679443359375
-0.764221191406250
-0.748016357421875
-0.728698730468750
-0.706665039062500
-0.681701660156250
-0.654205322265625
-0.623992919921875
-0.591522216796875
-0.556457519531250
-0.519561767578125
-0.480194091796875
-0.439392089843750
-0.396484375000000
-0.352233886718750
-0.306579589843750
-0.259582519531250
-0.211791992187500
-0.162933349609375
-0.113647460937500
-0.0637207031250000
-0.0137023925781250
0.0364990234375000
0.0864257812500000
0.136138916015625
0.185211181640625
0.233642578125000
0.281097412109375
0.327453613281250
0.372619628906250
0.416076660156250
0.458282470703125
0.498199462890625
0.536712646484375
0.572601318359375
0.606597900390625
0.638061523437500
0.666992187500000
0.693389892578125
0.717071533203125
0.737762451171875
0.755859375000000
0.770660400390625
0.782653808593750
0.791473388671875
0.797241210937500
0.799774169921875
0.799377441406250
0.795562744140625
0.788848876953125
0.778869628906250
0.765991210937500
0.749969482421875
0.731079101562500
0.709289550781250
0.684661865234375
0.657501220703125
0.627563476562500
0.595275878906250
0.560638427734375
0.523742675781250
0.484893798828125
0.444030761718750
0.401458740234375
0.357391357421875
0.311706542968750
0.265106201171875
0.217193603515625
0.168518066406250
0.119354248046875
0.0692749023437500
0.0195007324218750
-0.0308227539062500
-0.0808105468750000
-0.130401611328125
-0.179779052734375
-0.228118896484375
-0.275787353515625
-0.322235107421875
-0.367523193359375
-0.411285400390625
-0.453491210937500
-0.493835449218750
-0.532379150390625
-0.568634033203125
-0.602935791015625
-0.634490966796875
-0.663940429687500
-0.690490722656250
-0.714477539062500
-0.735656738281250
-0.753845214843750
-0.769195556640625
-0.781402587890625
-0.790679931640625
-0.796661376953125
-0.799804687500000
-0.799377441406250
-0.796325683593750
-0.789611816406250
-0.780303955078125
-0.767517089843750
-0.751983642578125
-0.733367919921875
-0.711853027343750
-0.687683105468750
-0.660644531250000
-0.631134033203125
-0.599060058593750
-0.564666748046875
-0.528045654296875
-0.489440917968750
-0.448730468750000
-0.406433105468750
-0.362365722656250
-0.317108154296875
-0.270324707031250
-0.222808837890625
-0.174011230468750
-0.124969482421875
-0.0750427246093750
-0.0250854492187500
0.0250244140625000
0.0751953125000000
0.124755859375000
0.174224853515625
0.222656250000000
0.270416259765625
0.317016601562500
0.362457275390625
0.406372070312500
0.448791503906250
0.489349365234375
0.528137207031250
0.564575195312500
0.599182128906250
0.631011962890625
0.660705566406250
0.687683105468750
0.711822509765625
0.733398437500000
0.751953125000000
0.767547607421875
0.780273437500000
0.789672851562500
0.796203613281250
0.799530029296875
0.799682617187500
0.796752929687500
0.790618896484375
0.781433105468750
0.769165039062500
0.753906250000000
0.735565185546875
0.714569091796875
0.690429687500000
0.663940429687500
0.634552001953125
0.602874755859375
0.568664550781250
0.532348632812500
0.493835449218750
0.453552246093750
0.411224365234375
0.367553710937500
0.322235107421875
0.275756835937500
0.228149414062500
0.179718017578125
0.130462646484375
0.0808105468750000
0.0307617187500000
-0.0193786621093750
-0.0694580078125000
-0.119171142578125
-0.168640136718750
-0.217132568359375
-0.265106201171875
-0.311767578125000
-0.357299804687500
-0.401550292968750
-0.443969726562500
-0.484924316406250
-0.523712158203125
-0.560699462890625
-0.595184326171875
-0.627685546875000
-0.657379150390625
-0.684692382812500
-0.709350585937500
-0.730987548828125
-0.750030517578125
-0.765960693359375
-0.778869628906250
-0.788879394531250
-0.795562744140625
-0.799346923828125
-0.799774169921875
-0.797241210937500
-0.791534423828125
-0.782531738281250
-0.770843505859375
-0.755645751953125
-0.737915039062500
-0.717010498046875
-0.693359375000000
-0.667083740234375
-0.637969970703125
-0.606658935546875
-0.572601318359375
-0.536682128906250
-0.498229980468750
-0.458251953125000
-0.416107177734375
-0.372589111328125
-0.327514648437500
-0.281036376953125
-0.233642578125000
-0.185272216796875
-0.136047363281250
-0.0865478515625000
-0.0363769531250000
0.0136413574218750
0.0637512207031250
0.113616943359375
0.162963867187500
0.211730957031250
0.259674072265625
0.306518554687500
0.352233886718750
0.396575927734375
0.439239501953125
0.480346679687500
0.519439697265625
0.556518554687500
0.591522216796875
0.623962402343750
0.654266357421875
0.681640625000000
0.706695556640625
0.728668212890625
0.748077392578125
0.764190673828125
0.777679443359375
0.787780761718750
0.795013427734375
0.799072265625000
0.799865722656250
0.797729492187500
0.792266845703125
0.783782958984375
0.772277832031250
0.757537841796875
0.740081787109375
0.719482421875000
0.696289062500000
0.670074462890625
0.641540527343750
0.610198974609375
0.576690673828125
0.540802001953125
0.502777099609375
0.462829589843750
0.420989990234375
0.377655029296875
0.332580566406250
0.286499023437500
0.239013671875000
0.190826416015625
0.141662597656250
0.0921936035156250
0.0420532226562500
-0.00787353515625000
-0.0581665039062500
-0.107910156250000
-0.157409667968750
-0.206207275390625
-0.254272460937500
-0.301269531250000
-0.347076416015625
-0.391662597656250
-0.434387207031250
-0.475860595703125
-0.515045166015625
-0.552459716796875
-0.587615966796875
-0.620452880859375
-0.650848388671875
-0.678802490234375
-0.703857421875000
-0.726470947265625
-0.745849609375000
-0.762634277343750
-0.776214599609375
-0.786834716796875
-0.794372558593750
-0.798706054687500
-0.800018310546875
-0.798004150390625
-0.793151855468750
-0.784881591796875
-0.773712158203125
-0.759399414062500
-0.742187500000000
-0.721984863281250
-0.699035644531250
-0.673248291015625
-0.644866943359375
-0.613891601562500
-0.580688476562500
-0.544830322265625
-0.507385253906250
-0.467285156250000
-0.426025390625000
-0.382476806640625
-0.337921142578125
-0.291687011718750
-0.244506835937500
-0.196350097656250
-0.147247314453125
-0.0978698730468750
-0.0477600097656250
0.00222778320312500
0.0524291992187500
0.102264404296875
0.151855468750000
0.200653076171875
0.248901367187500
0.295928955078125
0.342010498046875
0.386566162109375
0.429748535156250
0.471099853515625
0.510803222656250
0.548248291015625
0.583770751953125
0.616790771484375
0.647583007812500
0.675720214843750
0.701171875000000
0.724029541015625
0.743774414062500
0.760894775390625
0.774841308593750
0.785766601562500
0.793670654296875
0.798370361328125
0.799987792968750
0.798522949218750
0.793701171875000
0.786071777343750
0.775115966796875
0.761138916015625
0.744354248046875
0.724395751953125
0.701782226562500
0.676300048828125
0.648223876953125
0.617523193359375
0.584594726562500
0.549041748046875
0.511657714843750
0.472045898437500
0.430694580078125
0.387573242187500
0.343017578125000
0.297027587890625
0.249938964843750
0.201812744140625
0.152954101562500
0.103363037109375
0.0536193847656250
0.00335693359375000
-0.0466613769531250
-0.0966796875000000
-0.146179199218750
-0.195220947265625
-0.243408203125000
-0.290649414062500
-0.336883544921875
-0.381500244140625
-0.425018310546875
-0.466400146484375
-0.506439208984375
-0.544067382812500
-0.579864501953125
-0.613159179687500
-0.644195556640625
-0.672668457031250
-0.698364257812500
-0.721649169921875
-0.741607666015625
-0.759185791015625
-0.773315429687500
-0.784729003906250
-0.792907714843750
-0.798034667968750
-0.799926757812500
-0.798858642578125
-0.794403076171875
-0.787139892578125
-0.776428222656250
-0.762969970703125
-0.746337890625000
-0.726837158203125
-0.704528808593750
-0.679260253906250
-0.651611328125000
-0.621154785156250
-0.588348388671875
-0.553344726562500
-0.515869140625000
-0.476715087890625
-0.435485839843750
-0.392547607421875
-0.348175048828125
-0.302276611328125
-0.255340576171875
-0.207366943359375
-0.158477783203125
-0.109100341796875
-0.0592041015625000
-0.00909423828125000
0.0409545898437500
0.0910339355468750
0.140594482421875
0.189666748046875
0.238006591796875
0.285308837890625
0.331665039062500
0.376586914062500
0.420043945312500
0.461914062500000
0.501861572265625
0.539978027343750
0.575866699218750
0.609527587890625
0.640777587890625
0.669555664062500
0.695648193359375
0.718994140625000
0.739654541015625
0.757171630859375
0.772033691406250
0.783447265625000
0.792236328125000
0.797515869140625
0.799957275390625
0.799072265625000
0.795104980468750
0.788116455078125
0.777770996093750
0.764709472656250
0.748321533203125
0.729217529296875
0.707214355468750
0.682220458984375
0.654968261718750
0.624633789062500
0.592285156250000
0.557373046875000
0.520233154296875
0.481353759765625
0.440093994140625
0.397644042968750
0.353179931640625
0.307647705078125
0.260681152343750
0.212860107421875
0.164062500000000
0.114746093750000
0.0648803710937500
0.0148315429687500
-0.0353088378906250
-0.0853576660156250
-0.134948730468750
-0.184173583984375
-0.232452392578125
-0.280151367187500
-0.326293945312500
-0.371673583984375
-0.415100097656250
-0.457244873046875
-0.497528076171875
-0.535614013671875
-0.572021484375000
-0.605712890625000
-0.637420654296875
-0.666381835937500
-0.692840576171875
-0.716491699218750
-0.737426757812500
-0.755371093750000
-0.770446777343750
-0.782348632812500
-0.791381835937500
-0.797027587890625
-0.799896240234375
-0.799316406250000
-0.795715332031250
-0.789062500000000
-0.779083251953125
-0.766326904296875
-0.750396728515625
-0.731506347656250
-0.709838867187500
-0.685241699218750
-0.658111572265625
-0.628295898437500
-0.596069335937500
-0.561370849609375
-0.524719238281250
-0.485656738281250
-0.445098876953125
-0.402404785156250
-0.358367919921875
-0.312866210937500
-0.266082763671875
-0.218353271484375
-0.169647216796875
-0.120361328125000
-0.0705871582031250
-0.0204772949218750
0.0295410156250000
0.0797424316406250
0.129302978515625
0.178649902343750
0.226989746093750
0.274749755859375
0.321166992187500
0.366516113281250
0.410339355468750
0.452484130859375
0.493041992187500
0.531433105468750
0.567901611328125
0.602111816406250
0.633850097656250
0.663299560546875
0.689880371093750
0.714019775390625
0.735137939453125
0.753509521484375
0.768859863281250
0.781158447265625
0.790527343750000
0.796539306640625
0.799743652343750
0.799468994140625
0.796386718750000
0.789855957031250
0.780517578125000
0.767822265625000
0.752380371093750
0.733825683593750
0.712371826171875
0.688293457031250
0.661193847656250
0.631927490234375
0.599731445312500
0.565551757812500
0.528900146484375
0.490234375000000
0.449798583984375
0.407287597656250
0.363525390625000
0.318023681640625
0.271484375000000
0.223815917968750
0.175231933593750
0.125976562500000
0.0762329101562500
0.0262451171875000
-0.0239562988281250
-0.0739440917968750
-0.123779296875000
-0.173004150390625
-0.221618652343750
-0.269287109375000
-0.316040039062500
-0.361358642578125
-0.405456542968750
-0.447814941406250
-0.488464355468750
-0.527252197265625
-0.563812255859375
-0.598358154296875
-0.630371093750000
-0.660064697265625
-0.687011718750000
-0.711425781250000
-0.732879638671875
-0.751556396484375
-0.767272949218750
-0.779907226562500
-0.789611816406250
-0.796051025390625
-0.799499511718750
-0.799682617187500
-0.796875000000000
-0.790740966796875
-0.781768798828125
-0.769378662109375
-0.754333496093750
-0.736022949218750
-0.715026855468750
-0.691070556640625
-0.664550781250000
-0.635192871093750
-0.603698730468750
-0.569427490234375
-0.533203125000000
-0.494812011718750
-0.454315185546875
-0.412414550781250
-0.368347167968750
-0.323516845703125
-0.276611328125000
-0.229461669921875
-0.180633544921875
-0.131713867187500
-0.0818786621093750
-0.0319213867187500
0.0182495117187500
0.0682678222656250
0.118133544921875
0.167419433593750
0.216156005859375
0.263977050781250
0.310638427734375
0.356475830078125
0.400329589843750
0.443237304687500
0.483825683593750
0.523010253906250
0.559753417968750
0.594543457031250
0.626892089843750
0.656738281250000
0.684173583984375
0.708740234375000
0.730560302734375
0.749664306640625
0.765533447265625
0.778747558593750
0.788574218750000
0.795532226562500
0.799224853515625
0.799835205078125
0.797332763671875
0.791625976562500
0.782928466796875
0.770965576171875
0.756195068359375
0.738189697265625
0.717620849609375
0.693878173828125
0.667724609375000
0.638702392578125
0.607299804687500
0.573547363281250
0.537322998046875
0.499359130859375
0.458953857421875
0.417266845703125
0.373474121093750
0.328582763671875
0.282135009765625
0.234710693359375
0.186370849609375
0.137176513671875
0.0876464843750000
0.0375671386718750
-0.0125427246093750
-0.0625610351562500
-0.112579345703125
-0.161743164062500
-0.210754394531250
-0.258453369140625
-0.305603027343750
-0.351104736328125
-0.395660400390625
-0.438232421875000
-0.479461669921875
-0.518585205078125
-0.555694580078125
-0.590759277343750
-0.623199462890625
-0.653656005859375
-0.681030273437500
-0.706176757812500
-0.728210449218750
-0.747589111328125
-0.763946533203125
-0.777343750000000
-0.787597656250000
-0.794952392578125
-0.798889160156250
-0.800018310546875
-0.797698974609375
-0.792510986328125
-0.783966064453125
-0.772552490234375
-0.757965087890625
-0.740447998046875
-0.720062255859375
-0.696746826171875
-0.670806884765625
-0.642150878906250
-0.610961914062500
-0.577484130859375
-0.541595458984375
-0.503723144531250
-0.463714599609375
-0.421997070312500
-0.378631591796875
-0.333648681640625
-0.287506103515625
-0.240173339843750
-0.191833496093750
-0.142944335937500
-0.0931396484375000
-0.0433654785156250
0.00689697265625000
0.0569152832031250
0.106811523437500
0.156311035156250
0.205108642578125
0.253143310546875
0.300292968750000
0.345977783203125
0.390686035156250
0.433471679687500
0.474884033203125
0.514190673828125
0.551635742187500
0.586791992187500
0.619812011718750
0.650146484375000
0.678161621093750
0.703430175781250
0.725799560546875
0.745635986328125
0.762176513671875
0.775970458984375
0.786651611328125
0.794158935546875
0.798706054687500
0.799987792968750
0.798156738281250
0.793212890625000
0.785125732421875
0.773986816406250
0.759796142578125
0.742584228515625
0.722473144531250
0.699584960937500
0.673889160156250
0.645477294921875
0.614746093750000
0.581298828125000
0.545837402343750
0.508087158203125
0.468383789062500
0.426818847656250
0.383666992187500
0.338775634765625
0.292877197265625
0.245544433593750
0.197418212890625
0.148468017578125
0.0988769531250000
0.0490112304687500
-0.00115966796875000
-0.0512695312500000
-0.101104736328125
-0.150787353515625
-0.199523925781250
-0.247802734375000
-0.294921875000000
-0.340881347656250
-0.385681152343750
-0.428710937500000
-0.470214843750000
-0.509857177734375
-0.547454833984375
-0.582977294921875
-0.616119384765625
-0.646850585937500
-0.675109863281250
-0.700653076171875
-0.723480224609375
-0.743438720703125
-0.760498046875000
-0.774566650390625
-0.785522460937500
-0.793609619140625
-0.798156738281250
-0.800201416015625
-0.798339843750000
-0.794067382812500
-0.786132812500000
-0.775421142578125
-0.761596679687500
-0.744598388671875
-0.725036621093750
-0.702178955078125
-0.677062988281250
-0.648773193359375
-0.618347167968750
-0.585266113281250
-0.549957275390625
-0.512481689453125
-0.473022460937500
-0.431579589843750
-0.388671875000000
-0.343933105468750
-0.298187255859375
-0.250915527343750
-0.203033447265625
-0.153961181640625
-0.104583740234375
-0.0546569824218750
-0.00457763671875000
0.0455627441406250
0.0955200195312500
0.145080566406250
0.194152832031250
0.242218017578125
0.289703369140625
0.335723876953125
0.380615234375000
0.423950195312500
0.465545654296875
0.505523681640625
0.543243408203125
0.579071044921875
0.612457275390625
0.643463134765625
0.672088623046875
0.697845458984375
0.721038818359375
0.741333007812500
0.758666992187500
0.773132324218750
0.784484863281250
0.792694091796875
0.798004150390625
0.799926757812500
0.798858642578125
0.794647216796875
0.787170410156250
0.776824951171875
0.763305664062500
0.746704101562500
0.727386474609375
0.704925537109375
0.679992675781250
0.652221679687500
0.621856689453125
0.589172363281250
0.554077148437500
0.516845703125000
0.477600097656250
0.436401367187500
0.393585205078125
0.349151611328125
0.303375244140625
0.256439208984375
0.208404541015625
0.159637451171875
0.110229492187500
0.0603027343750000
0.0103149414062500
-0.0399169921875000
-0.0898132324218750
-0.139556884765625
-0.188476562500000
-0.236968994140625
-0.284240722656250
-0.330566406250000
-0.375701904296875
-0.418945312500000
-0.461090087890625
-0.500885009765625
-0.539215087890625
-0.575012207031250
-0.608856201171875
-0.640014648437500
-0.668975830078125
-0.695068359375000
-0.718536376953125
-0.739166259765625
-0.756866455078125
-0.771606445312500
-0.783386230468750
-0.791931152343750
-0.797515869140625
-0.799896240234375
-0.799133300781250
-0.795257568359375
-0.788238525390625
-0.778106689453125
-0.764984130859375
-0.748779296875000
-0.729675292968750
-0.707702636718750
-0.682891845703125
-0.655517578125000
-0.625457763671875
-0.592987060546875
-0.558197021484375
-0.521148681640625
-0.482177734375000
-0.441162109375000
-0.398559570312500
-0.354217529296875
-0.308685302734375
-0.261779785156250
-0.213928222656250
-0.165252685546875
-0.115783691406250
-0.0661010742187500
-0.0158996582031250
0.0341796875000000
0.0841674804687500
0.133911132812500
0.182952880859375
0.231506347656250
0.278900146484375
0.325469970703125
0.370452880859375
0.414306640625000
0.456237792968750
0.496582031250000
0.534881591796875
0.571075439453125
0.605102539062500
0.636657714843750
0.665771484375000
0.692260742187500
0.715972900390625
0.737030029296875
0.754943847656250
0.770141601562500
0.782135009765625
0.791137695312500
0.797088623046875
0.799713134765625
0.799438476562500
0.795837402343750
0.789154052734375
0.779510498046875
0.766510009765625
0.750854492187500
0.731964111328125
0.710327148437500
0.685882568359375
0.658752441406250
0.628967285156250
0.596832275390625
0.562255859375000
0.525451660156250
0.486724853515625
0.445892333984375
0.403472900390625
0.359375000000000
0.313873291015625
0.267211914062500
0.219390869140625
0.170806884765625
0.121459960937500
0.0717163085937500
0.0216674804687500
-0.0285034179687500
-0.0785217285156250
-0.128234863281250
-0.177459716796875
-0.226013183593750
-0.273559570312500
-0.320220947265625
-0.365478515625000
-0.409301757812500
-0.451660156250000
-0.492004394531250
-0.530670166015625
-0.567108154296875
-0.601287841796875
-0.633239746093750
-0.662597656250000
-0.689331054687500
-0.713531494140625
-0.734619140625000
-0.753204345703125
-0.768463134765625
-0.781005859375000
-0.790222167968750
-0.796600341796875
-0.799560546875000
-0.799621582031250
-0.796386718750000
-0.790130615234375
-0.780670166015625
-0.768249511718750
-0.752685546875000
-0.734313964843750
-0.712890625000000
-0.688842773437500
-0.661895751953125
-0.632537841796875
-0.600585937500000
-0.566284179687500
-0.529785156250000
-0.491149902343750
-0.450683593750000
-0.408325195312500
-0.364532470703125
-0.319061279296875
-0.272583007812500
-0.224884033203125
-0.176330566406250
-0.127166748046875
-0.0773010253906250
-0.0274353027343750
0.0228576660156250
0.0727844238281250
0.122650146484375
0.171905517578125
0.220489501953125
0.268280029296875
0.314910888671875
0.360443115234375
0.404357910156250
0.446990966796875
0.487457275390625
0.526458740234375
0.562988281250000
0.597595214843750
0.629669189453125
0.659423828125000
0.686462402343750
0.710815429687500
0.732513427734375
0.751098632812500
0.766998291015625
0.779663085937500
0.789367675781250
0.795989990234375
0.799377441406250
0.799835205078125
0.796813964843750
0.791137695312500
0.781738281250000
0.769958496093750
0.754486083984375
0.736633300781250
0.715393066406250
0.691772460937500
0.665069580078125
0.636016845703125
0.604339599609375
0.570251464843750
0.534057617187500
0.495697021484375
0.455291748046875
0.413330078125000
0.369445800781250
0.324401855468750
0.277893066406250
0.230346679687500
0.181854248046875
0.132843017578125
0.0829467773437500
0.0331420898437500
-0.0171508789062500
-0.0671691894531250
-0.116973876953125
-0.166290283203125
-0.215087890625000
-0.262817382812500
-0.309722900390625
-0.355316162109375
-0.399475097656250
-0.442169189453125
-0.483032226562500
-0.522033691406250
-0.559020996093750
-0.593750000000000
-0.626190185546875
-0.656127929687500
-0.683532714843750
-0.708190917968750
-0.730163574218750
-0.749206542968750
-0.765228271484375
-0.778503417968750
-0.788299560546875
-0.795471191406250
-0.799133300781250
-0.799896240234375
-0.797393798828125
-0.791839599609375
-0.783081054687500
-0.771362304687500
-0.756439208984375
-0.738800048828125
-0.717956542968750
-0.694580078125000
-0.668243408203125
-0.639434814453125
-0.608062744140625
-0.574249267578125
-0.538299560546875
-0.500091552734375
-0.460021972656250
-0.418151855468750
-0.374511718750000
-0.329650878906250
-0.283142089843750
-0.235839843750000
-0.187438964843750
-0.138366699218750
-0.0887451171875000
-0.0386962890625000
0.0113830566406250
0.0614929199218750
0.111297607421875
0.160797119140625
0.209503173828125
0.257507324218750
0.304412841796875
0.350219726562500
0.394500732421875
0.437438964843750
0.478424072265625
0.517761230468750
0.554901123046875
0.589904785156250
0.622619628906250
0.652832031250000
0.680603027343750
0.705474853515625
0.727874755859375
0.747070312500000
0.763702392578125
0.777008056640625
0.787445068359375
0.794769287109375
0.798858642578125
0.800018310546875
0.797821044921875
0.792602539062500
0.784240722656250
0.772827148437500
0.758331298828125
0.740905761718750
0.720520019531250
0.697326660156250
0.671386718750000
0.642883300781250
0.611663818359375
0.578308105468750
0.542388916015625
0.504638671875000
0.464599609375000
0.423065185546875
0.379486083984375
0.334838867187500
0.288452148437500
0.241333007812500
0.192932128906250
0.144012451171875
0.0943298339843750
0.0444641113281250
-0.00570678710937500
-0.0557861328125000
-0.105712890625000
-0.155120849609375
-0.204101562500000
-0.251983642578125
-0.299285888671875
-0.344909667968750
-0.389739990234375
-0.432434082031250
-0.474060058593750
-0.513244628906250
-0.550872802734375
-0.585998535156250
-0.619079589843750
-0.649475097656250
-0.677581787109375
-0.702819824218750
-0.725433349609375
-0.745086669921875
-0.761932373046875
-0.775634765625000
-0.786468505859375
-0.794006347656250
-0.798645019531250
-0.799987792968750
-0.798217773437500
-0.793426513671875
-0.785247802734375
-0.774383544921875
-0.760040283203125
-0.743072509765625
-0.722991943359375
-0.700073242187500
-0.674560546875000
-0.646087646484375
-0.615509033203125
-0.582061767578125
-0.546722412109375
-0.508941650390625
-0.469299316406250
-0.427825927734375
-0.384521484375000
-0.339996337890625
-0.293792724609375
-0.246734619140625
-0.198486328125000
-0.149536132812500
-0.100067138671875
-0.0501098632812500
0
0.0501098632812500
0.100036621093750
0.149597167968750
0.198455810546875
0.246734619140625
0.293853759765625
0.339874267578125
0.384643554687500
0.427734375000000
0.469360351562500
0.508941650390625
0.546661376953125
0.582183837890625
0.615325927734375
0.646270751953125
0.674407958984375
0.700195312500000
0.722930908203125
0.743041992187500
0.760131835937500
0.774261474609375
0.785369873046875
0.793334960937500
0.798278808593750
0.799957275390625
0.798645019531250
0.794036865234375
0.786437988281250
0.775695800781250
0.761871337890625
0.745147705078125
0.725341796875000
0.702941894531250
0.677459716796875
0.649597167968750
0.618988037109375
0.586090087890625
0.550689697265625
0.513488769531250
0.473785400390625
0.432678222656250
0.389587402343750
0.345001220703125
0.299194335937500
0.252075195312500
0.204010009765625
0.155212402343750
0.105621337890625
0.0558776855468750
0.00561523437500000
-0.0443420410156250
-0.0944519042968750
-0.143890380859375
-0.193084716796875
-0.241149902343750
-0.288635253906250
-0.334686279296875
-0.379577636718750
-0.423034667968750
-0.464599609375000
-0.504638671875000
-0.542388916015625
-0.578308105468750
-0.611694335937500
-0.642852783203125
-0.671386718750000
-0.697326660156250
-0.720550537109375
-0.740875244140625
-0.758361816406250
-0.772766113281250
-0.784332275390625
-0.792510986328125
-0.797943115234375
-0.799896240234375
-0.798889160156250
-0.794830322265625
-0.787353515625000
-0.777130126953125
-0.763580322265625
-0.747161865234375
-0.727813720703125
-0.705505371093750
-0.680633544921875
-0.652740478515625
-0.622741699218750
-0.589813232421875
-0.554962158203125
-0.517700195312500
-0.478454589843750
-0.437469482421875
-0.394439697265625
-0.350341796875000
-0.304260253906250
-0.257629394531250
-0.209442138671875
-0.160797119140625
-0.111328125000000
-0.0614929199218750
-0.0113830566406250
0.0386962890625000
0.0887756347656250
0.138305664062500
0.187500000000000
0.235778808593750
0.283233642578125
0.329528808593750
0.374633789062500
0.418029785156250
0.460113525390625
0.500061035156250
0.538299560546875
0.574249267578125
0.608093261718750
0.639343261718750
0.668395996093750
0.694427490234375
0.718109130859375
0.738647460937500
0.756561279296875
0.771301269531250
0.783111572265625
0.791809082031250
0.797424316406250
0.799865722656250
0.799194335937500
0.795379638671875
0.788391113281250
0.778472900390625
0.765197753906250
0.749298095703125
0.730041503906250
0.708282470703125
0.683502197265625
0.656097412109375
0.626281738281250
0.593627929687500
0.559082031250000
0.522003173828125
0.483032226562500
0.442199707031250
0.399475097656250
0.355285644531250
0.309722900390625
0.262847900390625
0.215057373046875
0.166320800781250
0.116973876953125
0.0671691894531250
0.0170898437500000
-0.0330200195312500
-0.0830688476562500
-0.132720947265625
-0.181976318359375
-0.230285644531250
-0.277893066406250
-0.324371337890625
-0.369476318359375
-0.413330078125000
-0.455322265625000
-0.495635986328125
-0.534057617187500
-0.570281982421875
-0.604339599609375
-0.635986328125000
-0.665130615234375
-0.691650390625000
-0.715576171875000
-0.736419677734375
-0.754730224609375
-0.769683837890625
-0.781982421875000
-0.790985107421875
-0.796875000000000
-0.799865722656250
-0.799285888671875
-0.796081542968750
-0.789306640625000
-0.779693603515625
-0.766998291015625
-0.751068115234375
-0.732543945312500
-0.710784912109375
-0.686523437500000
-0.659332275390625
-0.629760742187500
-0.597503662109375
-0.563079833984375
-0.526367187500000
-0.487518310546875
-0.446990966796875
-0.404327392578125
-0.360443115234375
-0.314941406250000
-0.268218994140625
-0.220581054687500
-0.171844482421875
-0.122619628906250
-0.0728759765625000
-0.0227355957031250
0.0272827148437500
0.0774536132812500
0.127044677734375
0.176422119140625
0.224822998046875
0.272613525390625
0.319061279296875
0.364501953125000
0.408325195312500
0.450714111328125
0.491088867187500
0.529876708984375
0.566223144531250
0.600585937500000
0.632537841796875
0.661895751953125
0.688873291015625
0.712890625000000
0.734283447265625
0.752685546875000
0.768280029296875
0.780639648437500
0.790161132812500
0.796356201171875
0.799621582031250
0.799621582031250
0.796508789062500
0.790283203125000
0.780944824218750
0.768554687500000
0.753112792968750
0.734710693359375
0.713439941406250
0.689392089843750
0.662567138671875
0.633270263671875
0.601257324218750
0.567138671875000
0.530609130859375
0.492065429687500
0.451629638671875
0.409301757812500
0.365509033203125
0.320190429687500
0.273529052734375
0.226104736328125
0.177307128906250
0.128417968750000
0.0783996582031250
0.0285644531250000
-0.0216979980468750
-0.0717163085937500
-0.121459960937500
-0.170806884765625
-0.219390869140625
-0.267181396484375
-0.313934326171875
-0.359313964843750
-0.403533935546875
-0.445861816406250
-0.486724853515625
-0.525451660156250
-0.562255859375000
-0.596832275390625
-0.628936767578125
-0.658813476562500
-0.685791015625000
-0.710449218750000
-0.731872558593750
-0.750854492187500
-0.766571044921875
-0.779418945312500
-0.789245605468750
-0.795806884765625
-0.799377441406250
-0.799865722656250
-0.796905517578125
-0.791259765625000
-0.782073974609375
-0.770141601562500
-0.755035400390625
-0.736938476562500
-0.716003417968750
-0.692230224609375
-0.665832519531250
-0.636627197265625
-0.605102539062500
-0.571075439453125
-0.534881591796875
-0.496582031250000
-0.456268310546875
-0.414245605468750
-0.370513916015625
-0.325408935546875
-0.278961181640625
-0.231445312500000
-0.182983398437500
-0.133941650390625
-0.0841064453125000
-0.0342102050781250
0.0158996582031250
0.0661315917968750
0.115753173828125
0.165252685546875
0.213958740234375
0.261749267578125
0.308654785156250
0.354309082031250
0.398468017578125
0.441253662109375
0.482086181640625
0.521240234375000
0.558074951171875
0.593109130859375
0.625396728515625
0.655517578125000
0.682922363281250
0.707672119140625
0.729675292968750
0.748840332031250
0.764862060546875
0.778259277343750
0.788085937500000
0.795379638671875
0.799072265625000
0.799926757812500
0.797454833984375
0.792022705078125
0.783294677734375
0.771667480468750
0.756835937500000
0.739227294921875
0.718414306640625
0.695220947265625
0.668792724609375
0.640228271484375
0.608673095703125
0.575195312500000
0.538970947265625
0.501129150390625
0.460906982421875
0.419097900390625
0.375610351562500
0.330535888671875
0.284362792968750
0.236816406250000
0.188629150390625
0.139434814453125
0.0898742675781250
0.0398559570312500
-0.0101928710937500
-0.0604858398437500
-0.110046386718750
-0.159790039062500
-0.208312988281250
-0.256469726562500
-0.303344726562500
-0.349212646484375
-0.393493652343750
-0.436492919921875
-0.477539062500000
-0.516876220703125
-0.554016113281250
-0.589233398437500
-0.621826171875000
-0.652252197265625
-0.679931640625000
-0.704986572265625
-0.727355957031250
-0.746734619140625
-0.763305664062500
-0.776733398437500
-0.787292480468750
-0.794586181640625
-0.798889160156250
-0.799926757812500
-0.797943115234375
-0.792755126953125
-0.784484863281250
-0.773101806640625
-0.758728027343750
-0.741271972656250
-0.721099853515625
-0.697814941406250
-0.672058105468750
-0.643493652343750
-0.612487792968750
-0.579040527343750
-0.543273925781250
-0.505462646484375
-0.465576171875000
-0.423980712890625
-0.380584716796875
-0.335754394531250
-0.289642333984375
-0.242309570312500
-0.194122314453125
-0.145050048828125
-0.0955200195312500
-0.0455932617187500
0.00460815429687500
0.0545959472656250
0.104644775390625
0.153991699218750
0.202972412109375
0.250946044921875
0.298156738281250
0.343963623046875
0.388641357421875
0.431640625000000
0.472961425781250
0.512512207031250
0.549957275390625
0.585235595703125
0.618377685546875
0.648803710937500
0.676971435546875
0.702301025390625
0.724884033203125
0.744781494140625
0.761474609375000
0.775421142578125
0.786224365234375
0.793914794921875
0.798553466796875
0.799987792968750
0.798339843750000
0.793457031250000
0.785614013671875
0.774536132812500
0.760467529296875
0.743530273437500
0.723358154296875
0.700744628906250
0.675048828125000
0.646911621093750
0.616088867187500
0.582977294921875
0.547424316406250
0.509887695312500
0.470214843750000
0.428771972656250
0.385589599609375
0.340911865234375
0.294952392578125
0.247741699218750
0.199615478515625
0.150695800781250
0.101165771484375
0.0512695312500000
0.00112915039062500
-0.0489807128906250
-0.0989074707031250
-0.148437500000000
-0.197418212890625
-0.245574951171875
-0.292816162109375
-0.338867187500000
-0.383605957031250
-0.426818847656250
-0.468414306640625
-0.508026123046875
-0.545898437500000
-0.581298828125000
-0.614715576171875
-0.645507812500000
-0.673858642578125
-0.699584960937500
-0.722473144531250
-0.742614746093750
-0.759765625000000
-0.774017333984375
-0.785064697265625
-0.793273925781250
-0.798126220703125
-0.800018310546875
-0.798675537109375
-0.794189453125000
-0.786621093750000
-0.775970458984375
-0.762237548828125
-0.745544433593750
-0.725860595703125
-0.703430175781250
-0.678100585937500
-0.650238037109375
-0.619720458984375
-0.586853027343750
-0.551544189453125
-0.514343261718750
-0.474700927734375
-0.433685302734375
-0.390441894531250
-0.346191406250000
-0.300140380859375
-0.253234863281250
-0.205078125000000
-0.156280517578125
-0.106842041015625
-0.0569458007812500
-0.00683593750000000
0.0432739257812500
0.0933227539062500
0.142761230468750
0.191925048828125
0.240142822265625
0.287506103515625
0.333679199218750
0.378631591796875
0.421966552734375
0.463745117187500
0.503723144531250
0.541564941406250
0.577514648437500
0.610961914062500
0.642150878906250
0.670776367187500
0.696807861328125
0.720001220703125
0.740478515625000
0.757965087890625
0.772521972656250
0.784027099609375
0.792480468750000
0.797668457031250
0.800079345703125
0.798828125000000
0.795013427734375
0.787536621093750
0.777404785156250
0.763885498046875
0.747619628906250
0.728240966796875
0.706115722656250
0.681121826171875
0.653533935546875
0.623291015625000
0.590728759765625
0.555664062500000
0.518676757812500
0.479278564453125
0.438476562500000
0.395446777343750
0.351226806640625
0.305541992187500
0.258453369140625
0.210754394531250
0.161773681640625
0.112548828125000
0.0625610351562500
0.0125732421875000
-0.0376281738281250
-0.0875854492187500
-0.137207031250000
-0.186340332031250
-0.234741210937500
-0.282135009765625
-0.328552246093750
-0.373535156250000
-0.417144775390625
-0.459106445312500
-0.499206542968750
-0.537475585937500
-0.573425292968750
-0.607391357421875
-0.638641357421875
-0.667724609375000
-0.693908691406250
-0.717559814453125
-0.738281250000000
-0.756134033203125
-0.771026611328125
-0.782836914062500
-0.791687011718750
-0.797302246093750
-0.799865722656250
-0.799224853515625
-0.795532226562500
-0.788574218750000
-0.778717041015625
-0.765533447265625
-0.749694824218750
-0.730499267578125
-0.708862304687500
-0.684020996093750
-0.656829833984375
-0.626861572265625
-0.594543457031250
-0.559783935546875
-0.522918701171875
-0.483947753906250
-0.443115234375000
-0.400482177734375
-0.356292724609375
-0.310791015625000
-0.263916015625000
-0.216125488281250
-0.167510986328125
-0.117980957031250
-0.0684204101562500
-0.0181884765625000
0.0318908691406250
0.0819396972656250
0.131622314453125
0.180816650390625
0.229187011718750
0.276885986328125
0.323303222656250
0.368499755859375
0.412322998046875
0.454345703125000
0.494842529296875
0.533142089843750
0.569519042968750
0.603576660156250
0.635284423828125
0.664520263671875
0.691070556640625
0.715026855468750
0.736053466796875
0.754241943359375
0.769500732421875
0.781646728515625
0.790832519531250
0.796813964843750
0.799743652343750
0.799468994140625
0.796081542968750
0.789550781250000
0.779937744140625
0.767272949218750
0.751556396484375
0.732940673828125
0.711334228515625
0.687072753906250
0.660003662109375
0.630432128906250
0.598297119140625
0.563903808593750
0.527160644531250
0.488525390625000
0.447753906250000
0.405517578125000
0.361297607421875
0.316070556640625
0.269287109375000
0.221649169921875
0.172973632812500
0.123748779296875
0.0739746093750000
0.0238952636718750
-0.0260925292968750
-0.0763854980468750
-0.125854492187500
-0.175354003906250
-0.223754882812500
-0.271453857421875
-0.318115234375000
-0.363403320312500
-0.407409667968750
-0.449737548828125
-0.490234375000000
-0.528930664062500
-0.565490722656250
-0.599822998046875
-0.631805419921875
-0.661346435546875
-0.688140869140625
-0.712463378906250
-0.733825683593750
-0.752288818359375
-0.767944335937500
-0.780426025390625
-0.789916992187500
-0.796325683593750
-0.799530029296875
-0.799682617187500
-0.796569824218750
-0.790527343750000
-0.781127929687500
-0.768890380859375
-0.753509521484375
-0.735107421875000
-0.714050292968750
-0.689910888671875
-0.663208007812500
-0.633972167968750
-0.601989746093750
-0.567993164062500
-0.531402587890625
-0.493041992187500
-0.452484130859375
-0.410369873046875
-0.366455078125000
-0.321228027343750
-0.274688720703125
-0.227050781250000
-0.178588867187500
-0.129394531250000
-0.0796203613281250
-0.0296630859375000
0.0205993652343750
0.0704956054687500
0.120391845703125
0.169677734375000
0.218292236328125
0.266143798828125
0.312835693359375
0.358367919921875
0.402404785156250
0.445098876953125
0.485626220703125
0.524749755859375
0.561401367187500
0.596008300781250
0.628356933593750
0.658020019531250
0.685333251953125
0.709808349609375
0.731536865234375
0.750366210937500
0.766265869140625
0.779205322265625
0.788970947265625
0.795776367187500
0.799316406250000
0.799774169921875
0.797180175781250
0.791290283203125
0.782379150390625
0.770477294921875
0.755279541015625
0.737487792968750
0.716522216796875
0.692718505859375
0.666564941406250
0.637176513671875
0.605987548828125
0.571777343750000
0.535797119140625
0.497406005859375
0.457244873046875
0.415191650390625
0.371582031250000
0.326354980468750
0.280120849609375
0.232452392578125
0.184204101562500
0.134887695312500
0.0854187011718750
0.0352172851562500
-0.0147094726562500
-0.0649414062500000
-0.114746093750000
-0.164062500000000
-0.212860107421875
-0.260742187500000
-0.307525634765625
-0.353363037109375
-0.397399902343750
-0.440338134765625
-0.481170654296875
-0.520324707031250
-0.557434082031250
-0.592102050781250
-0.624877929687500
-0.654724121093750
-0.682403564453125
-0.707122802734375
-0.729217529296875
-0.748382568359375
-0.764648437500000
-0.777832031250000
-0.788085937500000
-0.795074462890625
-0.799133300781250
-0.799865722656250
-0.797637939453125
-0.792114257812500
-0.783569335937500
-0.771911621093750
-0.757232666015625
-0.739654541015625
-0.718963623046875
-0.695709228515625
-0.669494628906250
-0.640808105468750
-0.609558105468750
-0.575836181640625
-0.539978027343750
-0.501831054687500
-0.461975097656250
-0.420013427734375
-0.376586914062500
-0.331665039062500
-0.285278320312500
-0.238067626953125
-0.189605712890625
-0.140594482421875
-0.0910339355468750
-0.0409545898437500
0.00903320312500000
0.0593261718750000
0.108947753906250
0.158630371093750
0.207275390625000
0.255340576171875
0.302368164062500
0.348022460937500
0.392669677734375
0.435394287109375
0.476745605468750
0.515899658203125
0.553314208984375
0.588317871093750
0.621246337890625
0.651458740234375
0.679412841796875
0.704437255859375
0.726837158203125
0.746429443359375
0.762786865234375
0.776641845703125
0.786987304687500
0.794433593750000
0.798919677734375
0.799835205078125
0.798095703125000
0.792877197265625
0.784729003906250
0.773345947265625
0.759155273437500
0.741638183593750
0.721618652343750
0.698394775390625
0.672637939453125
0.644226074218750
0.613159179687500
0.579803466796875
0.544219970703125
0.506225585937500
0.466613769531250
0.424865722656250
0.381561279296875
0.336883544921875
0.290588378906250
0.243499755859375
0.195129394531250
0.146270751953125
0.0965881347656250
0.0467224121093750
-0.00341796875000000
-0.0535278320312500
-0.103424072265625
-0.152923583984375
-0.201873779296875
-0.249847412109375
-0.297088623046875
-0.342987060546875
-0.387542724609375
-0.430786132812500
-0.471954345703125
-0.511688232421875
-0.549102783203125
-0.584472656250000
-0.617614746093750
-0.648193359375000
-0.676300048828125
-0.701812744140625
-0.724365234375000
-0.744354248046875
-0.761138916015625
-0.775177001953125
-0.785949707031250
-0.793823242187500
-0.798431396484375
-0.800018310546875
-0.798400878906250
-0.793640136718750
-0.785797119140625
-0.774780273437500
-0.760925292968750
-0.743804931640625
-0.723968505859375
-0.701263427734375
-0.675598144531250
-0.647705078125000
-0.616699218750000
-0.583831787109375
-0.548187255859375
-0.510864257812500
-0.471069335937500
-0.429779052734375
-0.386535644531250
-0.342010498046875
-0.295928955078125
-0.248931884765625
-0.200622558593750
-0.151885986328125
-0.102233886718750
-0.0524291992187500
-0.00228881835937500
0.0478515625000000
0.0978088378906250
0.147277832031250
0.196380615234375
0.244384765625000
0.291870117187500
0.337707519531250
0.382720947265625
0.425811767578125
0.467437744140625
0.507263183593750
0.544921875000000
0.580596923828125
0.614013671875000
0.644714355468750
0.673400878906250
0.698883056640625
0.722106933593750
0.742095947265625
0.759460449218750
0.773681640625000
0.784912109375000
0.793060302734375
0.798126220703125
0.799896240234375
0.798828125000000
0.794281005859375
0.786865234375000
0.776214599609375
0.762603759765625
0.745941162109375
0.726348876953125
0.703948974609375
0.678710937500000
0.650909423828125
0.620452880859375
0.587615966796875
0.552398681640625
0.515136718750000
0.475738525390625
0.434509277343750
0.391601562500000
0.347076416015625
0.301300048828125
0.254211425781250
0.206268310546875
0.157379150390625
0.107940673828125
0.0581054687500000
0.00793457031250000
-0.0421142578125000
-0.0921325683593750
-0.141723632812500
-0.190765380859375
-0.239105224609375
-0.286376953125000
-0.332702636718750
-0.377532958984375
-0.421081542968750
-0.462799072265625
-0.502807617187500
-0.540740966796875
-0.576721191406250
-0.610198974609375
-0.641540527343750
-0.670104980468750
-0.696228027343750
-0.719543457031250
-0.740020751953125
-0.757629394531250
-0.772216796875000
-0.783782958984375
-0.792327880859375
-0.797637939453125
-0.799957275390625
-0.799041748046875
-0.794952392578125
-0.787902832031250
-0.777557373046875
-0.764343261718750
-0.747924804687500
-0.728790283203125
-0.706542968750000
-0.681823730468750
-0.654144287109375
-0.624023437500000
-0.591522216796875
-0.556427001953125
-0.519592285156250
-0.480163574218750
-0.439422607421875
-0.396423339843750
-0.352325439453125
-0.306488037109375
-0.259674072265625
-0.211700439453125
-0.162994384765625
-0.113586425781250
-0.0638122558593750
-0.0136108398437500
0.0364074707031250
0.0865173339843750
0.136047363281250
0.185272216796875
0.233612060546875
0.281097412109375
0.327484130859375
0.372528076171875
0.416198730468750
0.458129882812500
0.498382568359375
0.536560058593750
0.572662353515625
0.606597900390625
0.638031005859375
0.667022705078125
0.693450927734375
0.716918945312500
0.737945556640625
0.755676269531250
0.770782470703125
0.782592773437500
0.791503906250000
0.797210693359375
0.799835205078125
0.799285888671875
0.795623779296875
0.788848876953125
0.778808593750000
0.766082763671875
0.749877929687500
0.731170654296875
0.709197998046875
0.684753417968750
0.657379150390625
0.627655029296875
0.595245361328125
0.560638427734375
0.523773193359375
0.484863281250000
0.444000244140625
0.401550292968750
0.357299804687500
0.311798095703125
0.265045166015625
0.217193603515625
0.168609619140625
0.119201660156250
0.0694580078125000
0.0193481445312500
-0.0307617187500000
-0.0807495117187500
-0.130554199218750
-0.179595947265625
-0.228271484375000
-0.275665283203125
-0.322357177734375
-0.367401123046875
-0.411376953125000
-0.453430175781250
-0.493896484375000
-0.532379150390625
-0.568603515625000
-0.602935791015625
-0.634490966796875
-0.663970947265625
-0.690460205078125
-0.714508056640625
-0.735626220703125
-0.753845214843750
-0.769226074218750
-0.781372070312500
-0.790649414062500
-0.796752929687500
-0.799652099609375
-0.799591064453125
-0.796112060546875
-0.789764404296875
-0.780212402343750
-0.767547607421875
-0.751983642578125
-0.733337402343750
-0.711914062500000
-0.687622070312500
-0.660675048828125
-0.631103515625000
-0.599060058593750
-0.564697265625000
-0.528076171875000
-0.489349365234375
-0.448791503906250
-0.406372070312500
-0.362457275390625
-0.317047119140625
-0.270385742187500
-0.222686767578125
-0.174133300781250
-0.124877929687500
-0.0751342773437500
-0.0250244140625000
0.0249938964843750
0.0752258300781250
0.124755859375000
0.174194335937500
0.222686767578125
0.270355224609375
0.317108154296875
0.362365722656250
0.406433105468750
0.448791503906250
0.489318847656250
0.528137207031250
0.564636230468750
0.599090576171875
0.631072998046875
0.660736083984375
0.687561035156250
0.711944580078125
0.733367919921875
0.751892089843750
0.767669677734375
0.780120849609375
0.789764404296875
0.796234130859375
0.799438476562500
0.799774169921875
0.796661376953125
0.790679931640625
0.781402587890625
0.769226074218750
0.753814697265625
0.735656738281250
0.714477539062500
0.690490722656250
0.663940429687500
0.634521484375000
0.602905273437500
0.568634033203125
0.532379150390625
0.493835449218750
0.453521728515625
0.411254882812500
0.367523193359375
0.322265625000000
0.275756835937500
0.228149414062500
0.179687500000000
0.130493164062500
0.0807800292968750
0.0307922363281250
-0.0194091796875000
-0.0694274902343750
-0.119201660156250
-0.168640136718750
-0.217132568359375
-0.265106201171875
-0.311737060546875
-0.357360839843750
-0.401489257812500
-0.444030761718750
-0.484863281250000
-0.523773193359375
-0.560607910156250
-0.595306396484375
-0.627563476562500
-0.657470703125000
-0.684692382812500
-0.709259033203125
-0.731079101562500
-0.750000000000000
-0.765930175781250
-0.778961181640625
-0.788726806640625
-0.795715332031250
-0.799194335937500
-0.799926757812500
-0.797149658203125
-0.791534423828125
-0.782623291015625
-0.770690917968750
-0.755798339843750
-0.737823486328125
-0.717010498046875
-0.693450927734375
-0.666931152343750
-0.638153076171875
-0.606475830078125
-0.572753906250000
-0.536529541015625
-0.498352050781250
-0.458190917968750
-0.416137695312500
-0.372558593750000
-0.327514648437500
-0.281036376953125
-0.233673095703125
-0.185241699218750
-0.136047363281250
-0.0865478515625000
-0.0363769531250000
0.0136108398437500
0.0638122558593750
0.113555908203125
0.162994384765625
0.211761474609375
0.259582519531250
0.306610107421875
0.352172851562500
0.396575927734375
0.439300537109375
0.480255126953125
0.519500732421875
0.556518554687500
0.591461181640625
0.624084472656250
0.654083251953125
0.681823730468750
0.706573486328125
0.728759765625000
0.747985839843750
0.764282226562500
0.777587890625000
0.787841796875000
0.795043945312500
0.798950195312500
0.800018310546875
0.797607421875000
0.792327880859375
0.783782958984375
0.772247314453125
0.757568359375000
0.740051269531250
0.719543457031250
0.696197509765625
0.670166015625000
0.641510009765625
0.610168457031250
0.576751708984375
0.540710449218750
0.502838134765625
0.462799072265625
0.421051025390625
0.377563476562500
0.332702636718750
0.286376953125000
0.239105224609375
0.190734863281250
0.141784667968750
0.0920715332031250
0.0422058105468750
-0.00805664062500000
-0.0579833984375000
-0.108062744140625
-0.157287597656250
-0.206298828125000
-0.254211425781250
-0.301300048828125
-0.347076416015625
-0.391632080078125
-0.434448242187500
-0.475799560546875
-0.515075683593750
-0.552429199218750
-0.587615966796875
-0.620452880859375
-0.650878906250000
-0.678771972656250
-0.703887939453125
-0.726379394531250
-0.745941162109375
-0.762603759765625
-0.776214599609375
-0.786865234375000
-0.794311523437500
-0.798736572265625
-0.800018310546875
-0.798034667968750
-0.793151855468750
-0.784820556640625
-0.773773193359375
-0.759338378906250
-0.742248535156250
-0.721954345703125
-0.699035644531250
-0.673217773437500
-0.644927978515625
-0.613830566406250
-0.580688476562500
-0.544860839843750
-0.507324218750000
-0.467376708984375
-0.425933837890625
-0.382537841796875
-0.337860107421875
-0.291748046875000
-0.244506835937500
-0.196289062500000
-0.147338867187500
-0.0977783203125000
-0.0478210449218750
0.00222778320312500
0.0524597167968750
0.102233886718750
0.151855468750000
0.200714111328125
0.248779296875000
0.296081542968750
0.341857910156250
0.386688232421875
0.429656982421875
0.471221923828125
0.510620117187500
0.548431396484375
0.583618164062500
0.616882324218750
0.647552490234375
0.675689697265625
0.701202392578125
0.723999023437500
0.743804931640625
0.760894775390625
0.774810791015625
0.785797119140625
0.793640136718750
0.798400878906250
0.799987792968750
0.798492431640625
0.793792724609375
0.785949707031250
0.775207519531250
0.761077880859375
0.744415283203125
0.724334716796875
0.701812744140625
0.676300048828125
0.648223876953125
0.617584228515625
0.584472656250000
0.549133300781250
0.511627197265625
0.472045898437500
0.430725097656250
0.387542724609375
0.343017578125000
0.297058105468750
0.249877929687500
0.201904296875000
0.152832031250000
0.103485107421875
0.0535278320312500
0.00338745117187500
-0.0466613769531250
-0.0966796875000000
-0.146209716796875
-0.195159912109375
-0.243469238281250
-0.290649414062500
-0.336791992187500
-0.381652832031250
-0.424835205078125
-0.466552734375000
-0.506347656250000
-0.544097900390625
-0.579864501953125
-0.613189697265625
-0.644134521484375
-0.672698974609375
-0.698364257812500
-0.721618652343750
-0.741668701171875
-0.759124755859375
-0.773376464843750
-0.784667968750000
-0.792968750000000
-0.797943115234375
-0.800048828125000
-0.798736572265625
-0.794525146484375
-0.786987304687500
-0.776580810546875
-0.762878417968750
-0.746368408203125
-0.726837158203125
-0.704467773437500
-0.679351806640625
-0.651550292968750
-0.621154785156250
-0.588409423828125
-0.553222656250000
-0.515991210937500
-0.476654052734375
-0.435485839843750
-0.392578125000000
-0.348114013671875
-0.302337646484375
-0.255340576171875
-0.207305908203125
-0.158508300781250
-0.109130859375000
-0.0591430664062500
-0.00924682617187500
0.0411682128906250
0.0908813476562500
0.140655517578125
0.189636230468750
0.237976074218750
0.285369873046875
0.331634521484375
0.376556396484375
0.420104980468750
0.461853027343750
0.501922607421875
0.539916992187500
0.575897216796875
0.609558105468750
0.640747070312500
0.669555664062500
0.695648193359375
0.718994140625000
0.739685058593750
0.757171630859375
0.771972656250000
0.783508300781250
0.792205810546875
0.797515869140625
0.799957275390625
0.799072265625000
0.795135498046875
0.788055419921875
0.777832031250000
0.764648437500000
0.748352050781250
0.729248046875000
0.707153320312500
0.682312011718750
0.654846191406250
0.624755859375000
0.592224121093750
0.557373046875000
0.520294189453125
0.481231689453125
0.440277099609375
0.397491455078125
0.353302001953125
0.307525634765625
0.260772705078125
0.212829589843750
0.164062500000000
0.114776611328125
0.0648498535156250
0.0148315429687500
-0.0353088378906250
-0.0853576660156250
-0.134948730468750
-0.184143066406250
-0.232513427734375
-0.280090332031250
-0.326354980468750
-0.371643066406250
-0.415069580078125
-0.457336425781250
-0.497406005859375
-0.535766601562500
-0.571868896484375
-0.605834960937500
-0.637329101562500
-0.666442871093750
-0.692810058593750
-0.716491699218750
-0.737457275390625
-0.755310058593750
-0.770477294921875
-0.782379150390625
-0.791290283203125
-0.797149658203125
-0.799804687500000
-0.799316406250000
-0.795806884765625
-0.788909912109375
-0.779266357421875
-0.766174316406250
-0.750488281250000
-0.731445312500000
-0.709869384765625
-0.685241699218750
-0.658142089843750
-0.628234863281250
-0.596099853515625
-0.561370849609375
-0.524688720703125
-0.485717773437500
-0.445037841796875
-0.402404785156250
-0.358459472656250
-0.312744140625000
-0.266174316406250
-0.218261718750000
-0.169708251953125
-0.120330810546875
-0.0706481933593750
-0.0204467773437500
0.0296020507812500
0.0796813964843750
0.129364013671875
0.178558349609375
0.227050781250000
0.274749755859375
0.321166992187500
0.366546630859375
0.410247802734375
0.452606201171875
0.492919921875000
0.531524658203125
0.567871093750000
0.602111816406250
0.633880615234375
0.663238525390625
0.689941406250000
0.713958740234375
0.735198974609375
0.753479003906250
0.768859863281250
0.781158447265625
0.790496826171875
0.796600341796875
0.799682617187500
0.799530029296875
0.796295166015625
0.789947509765625
0.780426025390625
0.767944335937500
0.752258300781250
0.733917236328125
0.712310791015625
0.688323974609375
0.661224365234375
0.631866455078125
0.599792480468750
0.565490722656250
0.528930664062500
0.490264892578125
0.449768066406250
0.407287597656250
0.363525390625000
0.318023681640625
0.271514892578125
0.223785400390625
0.175201416015625
0.126037597656250
0.0762023925781250
0.0262756347656250
-0.0239868164062500
-0.0739440917968750
-0.123779296875000
-0.172973632812500
-0.221618652343750
-0.269348144531250
-0.315948486328125
-0.361480712890625
-0.405334472656250
-0.447906494140625
-0.488433837890625
-0.527221679687500
-0.563873291015625
-0.598327636718750
-0.630371093750000
-0.660064697265625
-0.687011718750000
-0.711395263671875
-0.732910156250000
-0.751556396484375
-0.767211914062500
-0.779998779296875
-0.789520263671875
-0.796112060546875
-0.799438476562500
-0.799743652343750
-0.796813964843750
-0.790802001953125
-0.781738281250000
-0.769378662109375
-0.754364013671875
-0.735961914062500
-0.715087890625000
-0.691009521484375
-0.664611816406250
-0.635162353515625
-0.603698730468750
-0.569427490234375
-0.533203125000000
-0.494781494140625
-0.454376220703125
-0.412353515625000
-0.368408203125000
-0.323394775390625
-0.276763916015625
-0.229309082031250
-0.180755615234375
-0.131652832031250
-0.0818786621093750
-0.0319213867187500
0.0182189941406250
0.0683288574218750
0.118072509765625
0.167480468750000
0.216125488281250
0.263946533203125
0.310729980468750
0.356353759765625
0.400451660156250
0.443145751953125
0.483917236328125
0.522949218750000
0.559753417968750
0.594604492187500
0.626770019531250
0.656890869140625
0.684051513671875
0.708770751953125
0.730651855468750
0.749511718750000
0.765686035156250
0.778594970703125
0.788696289062500
0.795440673828125
0.799285888671875
0.799804687500000
0.797332763671875
0.791717529296875
0.782745361328125
0.771148681640625
0.756011962890625
0.738372802734375
0.717498779296875
0.693969726562500
0.667633056640625
0.638763427734375
0.607299804687500
0.573486328125000
0.537445068359375
0.499176025390625
0.459136962890625
0.417144775390625
0.373596191406250
0.328460693359375
0.282196044921875
0.234680175781250
0.186370849609375
0.137237548828125
0.0875549316406250
0.0376586914062500
-0.0126037597656250
-0.0625915527343750
-0.112457275390625
-0.161926269531250
-0.210540771484375
-0.258666992187500
-0.305389404296875
-0.351287841796875
-0.395507812500000
-0.438354492187500
-0.479400634765625
-0.518554687500000
-0.555755615234375
-0.590667724609375
-0.623352050781250
-0.653503417968750
-0.681152343750000
-0.706054687500000
-0.728332519531250
-0.747497558593750
-0.764038085937500
-0.777282714843750
-0.787628173828125
-0.794921875000000
-0.798919677734375
-0.800018310546875
-0.797698974609375
-0.792480468750000
-0.784027099609375
-0.772460937500000
-0.758087158203125
-0.740356445312500
-0.720092773437500
-0.696746826171875
-0.670776367187500
-0.642181396484375
-0.610961914062500
-0.577484130859375
-0.541595458984375
-0.503692626953125
-0.463775634765625
-0.421936035156250
-0.378692626953125
-0.333587646484375
-0.287567138671875
-0.240142822265625
-0.191864013671875
-0.142883300781250
-0.0932006835937500
-0.0433044433593750
0.00680541992187500
0.0569763183593750
0.106781005859375
0.156341552734375
0.205078125000000
0.253204345703125
0.300170898437500
0.346099853515625
0.390594482421875
0.433563232421875
0.474822998046875
0.514221191406250
0.551605224609375
0.586853027343750
0.619720458984375
0.650238037109375
0.678100585937500
0.703399658203125
0.725921630859375
0.745483398437500
0.762268066406250
0.775939941406250
0.786651611328125
0.794219970703125
0.798614501953125
0.800048828125000
0.798126220703125
0.793243408203125
0.785156250000000
0.773925781250000
0.759826660156250
0.742584228515625
0.722473144531250
0.699615478515625
0.673797607421875
0.645629882812500
0.614562988281250
0.581451416015625
0.545745849609375
0.508148193359375
0.468353271484375
0.426849365234375
0.383575439453125
0.338928222656250
0.292694091796875
0.245758056640625
0.197204589843750
0.148620605468750
0.0987854003906250
0.0490722656250000
-0.00115966796875000
-0.0513000488281250
-0.101135253906250
-0.150695800781250
-0.199615478515625
-0.247711181640625
-0.295013427734375
-0.340850830078125
-0.385620117187500
-0.428802490234375
-0.470123291015625
-0.509979248046875
-0.547393798828125
-0.582977294921875
-0.616088867187500
-0.646881103515625
-0.675109863281250
-0.700653076171875
-0.723480224609375
-0.743438720703125
-0.760467529296875
-0.774597167968750
-0.785522460937500
-0.793518066406250
-0.798339843750000
-0.799957275390625
-0.798583984375000
-0.793884277343750
-0.786254882812500
-0.775360107421875
-0.761566162109375
-0.744720458984375
-0.724853515625000
-0.702392578125000
-0.676879882812500
-0.648864746093750
-0.618377685546875
-0.585174560546875
-0.550018310546875
-0.512481689453125
-0.472961425781250
-0.431671142578125
-0.388610839843750
-0.343933105468750
-0.298248291015625
-0.250823974609375
-0.203094482421875
-0.153930664062500
-0.104583740234375
-0.0547180175781250
-0.00448608398437500
0.0455322265625000
0.0955200195312500
0.145080566406250
0.194091796875000
0.242340087890625
0.289642333984375
0.335723876953125
0.380645751953125
0.423889160156250
0.465667724609375
0.505371093750000
0.543365478515625
0.578948974609375
0.612579345703125
0.643402099609375
0.672088623046875
0.697845458984375
0.721038818359375
0.741333007812500
0.758666992187500
0.773193359375000
0.784362792968750
0.792846679687500
0.797882080078125
0.800018310546875
0.798797607421875
0.794677734375000
0.787139892578125
0.776916503906250
0.763183593750000
0.746795654296875
0.727294921875000
0.705047607421875
0.679901123046875
0.652282714843750
0.621795654296875
0.589233398437500
0.554016113281250
0.516906738281250
0.477539062500000
0.436431884765625
0.393554687500000
0.349182128906250
0.303344726562500
0.256469726562500
0.208343505859375
0.159729003906250
0.110137939453125
0.0603942871093750
0.0102233886718750
-0.0398559570312500
-0.0898437500000000
-0.139495849609375
-0.188537597656250
-0.236907958984375
-0.284301757812500
-0.330566406250000
-0.375610351562500
-0.419036865234375
-0.461029052734375
-0.500946044921875
-0.539154052734375
-0.575073242187500
-0.608734130859375
-0.640228271484375
-0.668762207031250
-0.695190429687500
-0.718505859375000
-0.739135742187500
-0.756927490234375
-0.771606445312500
-0.783264160156250
-0.792083740234375
-0.797393798828125
-0.800018310546875
-0.799041748046875
-0.795288085937500
-0.788208007812500
-0.778198242187500
-0.764892578125000
-0.748840332031250
-0.729644775390625
-0.707672119140625
-0.683013916015625
-0.655364990234375
-0.625579833984375
-0.592895507812500
-0.558258056640625
-0.521118164062500
-0.482177734375000
-0.441162109375000
-0.398559570312500
-0.354248046875000
-0.308654785156250
-0.261810302734375
-0.213897705078125
-0.165283203125000
-0.115753173828125
-0.0661315917968750
-0.0158996582031250
0.0341796875000000
0.0841674804687500
0.133911132812500
0.182983398437500
0.231414794921875
0.279022216796875
0.325347900390625
0.370544433593750
0.414245605468750
0.456237792968750
0.496612548828125
0.534851074218750
0.571136474609375
0.604980468750000
0.636779785156250
0.665679931640625
0.692321777343750
0.715972900390625
0.736968994140625
0.755004882812500
0.770080566406250
0.782196044921875
0.791107177734375
0.797088623046875
0.799713134765625
0.799438476562500
0.795806884765625
0.789215087890625
0.779449462890625
0.766571044921875
0.750823974609375
0.731933593750000
0.710388183593750
0.685821533203125
0.658782958984375
0.628967285156250
0.596832275390625
0.562225341796875
0.525512695312500
0.486633300781250
0.445953369140625
0.403472900390625
0.359313964843750
0.313964843750000
0.267120361328125
0.219451904296875
0.170776367187500
0.121459960937500
0.0717163085937500
0.0216674804687500
-0.0284729003906250
-0.0785522460937500
-0.128234863281250
-0.177459716796875
-0.226013183593750
-0.273559570312500
-0.320220947265625
-0.365447998046875
-0.409362792968750
-0.451568603515625
-0.492156982421875
-0.530517578125000
-0.567230224609375
-0.601165771484375
-0.633331298828125
-0.662506103515625
-0.689453125000000
-0.713409423828125
-0.734710693359375
-0.753143310546875
-0.768463134765625
-0.781036376953125
-0.790191650390625
-0.796600341796875
-0.799591064453125
-0.799560546875000
-0.796478271484375
-0.790039062500000
-0.780761718750000
-0.768157958984375
-0.752777099609375
-0.734222412109375
-0.712982177734375
-0.688781738281250
-0.661956787109375
-0.632507324218750
-0.600585937500000
-0.566253662109375
-0.529846191406250
-0.491088867187500
-0.450744628906250
-0.408294677734375
-0.364501953125000
-0.319091796875000
-0.272583007812500
-0.224853515625000
-0.176391601562500
-0.127075195312500
-0.0773925781250000
-0.0273742675781250
0.0228271484375000
0.0728149414062500
0.122589111328125
0.171997070312500
0.220397949218750
0.268341064453125
0.314880371093750
0.360412597656250
0.404479980468750
0.446838378906250
0.487579345703125
0.526336669921875
0.563079833984375
0.597564697265625
0.629699707031250
0.659362792968750
0.686492919921875
0.710815429687500
0.732482910156250
0.751159667968750
0.766937255859375
0.779663085937500
0.789428710937500
0.795898437500000
0.799499511718750
0.799713134765625
0.796966552734375
0.790954589843750
0.781921386718750
0.769836425781250
0.754577636718750
0.736541748046875
0.715515136718750
0.691650390625000
0.665161132812500
0.635955810546875
0.604370117187500
0.570220947265625
0.534118652343750
0.495605468750000
0.455383300781250
0.413238525390625
0.369567871093750
0.324279785156250
0.277984619140625
0.230255126953125
0.181976318359375
0.132690429687500
0.0831298828125000
0.0329589843750000
-0.0170288085937500
-0.0671997070312500
-0.117004394531250
-0.166259765625000
-0.215118408203125
-0.262786865234375
-0.309753417968750
-0.355285644531250
-0.399536132812500
-0.442077636718750
-0.483123779296875
-0.521942138671875
-0.559143066406250
-0.593627929687500
-0.626251220703125
-0.656097412109375
-0.683502197265625
-0.708282470703125
-0.730102539062500
-0.749176025390625
-0.765350341796875
-0.778289794921875
-0.788543701171875
-0.795288085937500
-0.799255371093750
-0.799835205078125
-0.797424316406250
-0.791809082031250
-0.783081054687500
-0.771392822265625
-0.756408691406250
-0.738830566406250
-0.717895507812500
-0.694641113281250
-0.668243408203125
-0.639404296875000
-0.608123779296875
-0.574157714843750
-0.538360595703125
-0.500091552734375
-0.460021972656250
-0.418151855468750
-0.374542236328125
-0.329528808593750
-0.283294677734375
-0.235717773437500
-0.187561035156250
-0.138244628906250
-0.0888061523437500
-0.0386657714843750
0.0113220214843750
0.0615539550781250
0.111297607421875
0.160766601562500
0.209533691406250
0.257446289062500
0.304504394531250
0.350128173828125
0.394622802734375
0.437316894531250
0.478546142578125
0.517639160156250
0.554992675781250
0.589843750000000
0.622680664062500
0.652832031250000
0.680511474609375
0.705627441406250
0.727722167968750
0.747192382812500
0.763610839843750
0.777038574218750
0.787506103515625
0.794677734375000
0.798950195312500
0.799926757812500
0.797882080078125
0.792602539062500
0.784240722656250
0.772827148437500
0.758300781250000
0.740966796875000
0.720458984375000
0.697387695312500
0.671386718750000
0.642822265625000
0.611755371093750
0.578216552734375
0.542449951171875
0.504638671875000
0.464569091796875
0.423095703125000
0.379455566406250
0.334869384765625
0.288421630859375
0.241363525390625
0.192932128906250
0.143920898437500
0.0945129394531250
0.0442504882812500
-0.00552368164062500
-0.0559082031250000
-0.105682373046875
-0.155090332031250
-0.204132080078125
-0.251983642578125
-0.299224853515625
-0.345031738281250
-0.389556884765625
-0.432647705078125
-0.473876953125000
-0.513366699218750
-0.550811767578125
-0.585998535156250
-0.619079589843750
-0.649505615234375
-0.677551269531250
-0.702850341796875
-0.725402832031250
-0.745117187500000
-0.761932373046875
-0.775604248046875
-0.786499023437500
-0.794006347656250
-0.798645019531250
-0.800018310546875
-0.798156738281250
-0.793457031250000
-0.785308837890625
-0.774261474609375
-0.760162353515625
-0.742980957031250
-0.722991943359375
-0.700164794921875
-0.674438476562500
-0.646209716796875
-0.615386962890625
-0.582153320312500
-0.546630859375000
-0.509033203125000
-0.469238281250000
-0.427825927734375
-0.384582519531250
-0.339904785156250
-0.293853759765625
-0.246704101562500
-0.198486328125000
-0.149566650390625
-0.100067138671875
-0.0500793457031250
-3.05175781250000e-05
0.0501403808593750
0.100006103515625
0.149597167968750
0.198486328125000
0.246704101562500
0.293823242187500
0.339965820312500
0.384490966796875
0.427917480468750
0.469207763671875
0.509033203125000
0.546630859375000
0.582122802734375
0.615417480468750
0.646240234375000
0.674407958984375
0.700195312500000
0.722900390625000
0.743072509765625
0.760101318359375
0.774322509765625
0.785278320312500
0.793426513671875
0.798187255859375
0.800048828125000
0.798553466796875
0.794097900390625
0.786376953125000
0.775756835937500
0.761810302734375
0.745239257812500
0.725250244140625
0.702972412109375
0.677459716796875
0.649597167968750
0.618988037109375
0.586059570312500
0.550811767578125
0.513305664062500
0.473999023437500
0.432495117187500
0.389678955078125
0.345001220703125
0.299133300781250
0.252197265625000
0.203887939453125
0.155303955078125
0.105560302734375
0.0559082031250000
0.00561523437500000
-0.0443420410156250
-0.0944519042968750
-0.143920898437500
-0.193023681640625
-0.241210937500000
-0.288604736328125
-0.334625244140625
-0.379730224609375
-0.422821044921875
-0.464813232421875
-0.504486083984375
-0.542510986328125
-0.578186035156250
-0.611755371093750
-0.642822265625000
-0.671417236328125
-0.697326660156250
-0.720520019531250
-0.740936279296875
-0.758270263671875
-0.772888183593750
-0.784149169921875
-0.792724609375000
-0.797760009765625
-0.800018310546875
-0.798858642578125
-0.794799804687500
-0.787384033203125
-0.777130126953125
-0.763549804687500
-0.747222900390625
-0.727752685546875
-0.705566406250000
-0.680541992187500
-0.652862548828125
-0.622650146484375
-0.589843750000000
-0.554992675781250
-0.517639160156250
-0.478515625000000
-0.437377929687500
-0.394561767578125
-0.350219726562500
-0.304382324218750
-0.257507324218750
-0.209503173828125
-0.160797119140625
-0.111297607421875
-0.0615539550781250
-0.0112609863281250
0.0385437011718750
0.0889282226562500
0.138183593750000
0.187561035156250
0.235778808593750
0.283203125000000
0.329589843750000
0.374542236328125
0.418121337890625
0.460021972656250
0.500183105468750
0.538177490234375
0.574371337890625
0.607940673828125
0.639526367187500
0.668212890625000
0.694580078125000
0.717956542968750
0.738800048828125
0.756439208984375
0.771392822265625
0.783050537109375
0.791809082031250
0.797424316406250
0.799865722656250
0.799224853515625
0.795318603515625
0.788482666015625
0.778350830078125
0.765319824218750
0.749176025390625
0.730133056640625
0.708221435546875
0.683563232421875
0.656066894531250
0.626251220703125
0.593688964843750
0.559020996093750
0.522064208984375
0.482971191406250
0.442260742187500
0.399383544921875
0.355407714843750
0.309600830078125
0.262939453125000
0.214965820312500
0.166412353515625
0.116882324218750
0.0672607421875000
0.0170288085937500
-0.0329895019531250
-0.0831298828125000
-0.132659912109375
-0.182006835937500
-0.230224609375000
-0.277984619140625
-0.324310302734375
-0.369537353515625
-0.413269042968750
-0.455322265625000
-0.495697021484375
-0.533996582031250
-0.570343017578125
-0.604278564453125
-0.636047363281250
-0.665069580078125
-0.691741943359375
-0.715423583984375
-0.736602783203125
-0.754547119140625
-0.769897460937500
-0.781829833984375
-0.790985107421875
-0.796966552734375
-0.799713134765625
-0.799468994140625
-0.795959472656250
-0.789367675781250
-0.779663085937500
-0.766967773437500
-0.751129150390625
-0.732513427734375
-0.710784912109375
-0.686523437500000
-0.659301757812500
-0.629821777343750
-0.597442626953125
-0.563140869140625
-0.526306152343750
-0.487548828125000
-0.446960449218750
-0.404388427734375
-0.360382080078125
-0.315002441406250
-0.268188476562500
-0.220520019531250
-0.171966552734375
-0.122528076171875
-0.0729370117187500
-0.0227050781250000
0.0272827148437500
0.0774536132812500
0.127014160156250
0.176452636718750
0.224792480468750
0.272644042968750
0.319061279296875
0.364501953125000
0.408294677734375
0.450744628906250
0.491088867187500
0.529876708984375
0.566223144531250
0.600585937500000
0.632537841796875
0.661895751953125
0.688873291015625
0.712860107421875
0.734313964843750
0.752716064453125
0.768218994140625
0.780700683593750
0.790100097656250
0.796386718750000
0.799621582031250
0.799621582031250
0.796508789062500
0.790313720703125
0.780883789062500
0.768615722656250
0.753021240234375
0.734832763671875
0.713317871093750
0.689514160156250
0.662475585937500
0.633300781250000
0.601257324218750
0.567169189453125
0.530548095703125
0.492126464843750
0.451568603515625
0.409393310546875
0.365417480468750
0.320220947265625
0.273559570312500
0.226043701171875
0.177429199218750
0.128234863281250
0.0785522460937500
0.0284423828125000
-0.0215759277343750
-0.0717773437500000
-0.121490478515625
-0.170715332031250
-0.219512939453125
-0.267059326171875
-0.313995361328125
-0.359344482421875
-0.403442382812500
-0.445922851562500
-0.486694335937500
-0.525482177734375
-0.562255859375000
-0.596801757812500
-0.628967285156250
-0.658752441406250
-0.685913085937500
-0.710266113281250
-0.732055664062500
-0.750732421875000
-0.766632080078125
-0.779388427734375
-0.789276123046875
-0.795715332031250
-0.799560546875000
-0.799621582031250
-0.797119140625000
-0.791137695312500
-0.782135009765625
-0.770111083984375
-0.755035400390625
-0.736877441406250
-0.716156005859375
-0.692077636718750
-0.665924072265625
-0.636566162109375
-0.605102539062500
-0.571136474609375
-0.534820556640625
-0.496643066406250
-0.456176757812500
-0.414337158203125
-0.370422363281250
-0.325531005859375
-0.278839111328125
-0.231536865234375
-0.182922363281250
-0.133941650390625
-0.0841369628906250
-0.0342102050781250
0.0159301757812500
0.0661010742187500
0.115783691406250
0.165283203125000
0.213867187500000
0.261840820312500
0.308624267578125
0.354278564453125
0.398529052734375
0.441192626953125
0.482147216796875
0.521179199218750
0.558135986328125
0.593048095703125
0.625427246093750
0.655517578125000
0.682922363281250
0.707672119140625
0.729705810546875
0.748748779296875
0.765014648437500
0.778076171875000
0.788269042968750
0.795257568359375
0.799102783203125
0.799957275390625
0.797424316406250
0.792053222656250
0.783233642578125
0.771728515625000
0.756805419921875
0.739196777343750
0.718536376953125
0.695037841796875
0.668975830078125
0.640045166015625
0.608856201171875
0.575012207031250
0.539154052734375
0.501007080078125
0.460906982421875
0.419189453125000
0.375488281250000
0.330657958984375
0.284240722656250
0.236907958984375
0.188598632812500
0.139404296875000
0.0899353027343750
0.0398254394531250
-0.0102539062500000
-0.0603027343750000
-0.110290527343750
-0.159576416015625
-0.208465576171875
-0.256378173828125
-0.303405761718750
-0.349121093750000
-0.393585205078125
-0.436462402343750
-0.477508544921875
-0.516906738281250
-0.554016113281250
-0.589202880859375
-0.621856689453125
-0.652252197265625
-0.679901123046875
-0.705017089843750
-0.727325439453125
-0.746765136718750
-0.763275146484375
-0.776794433593750
-0.787231445312500
-0.794616699218750
-0.798858642578125
-0.799957275390625
-0.797943115234375
-0.792724609375000
-0.784545898437500
-0.773010253906250
-0.758789062500000
-0.741271972656250
-0.721008300781250
-0.697967529296875
-0.671905517578125
-0.643615722656250
-0.612426757812500
-0.579010009765625
-0.543334960937500
-0.505432128906250
-0.465576171875000
-0.424011230468750
-0.380523681640625
-0.335815429687500
-0.289611816406250
-0.242309570312500
-0.194091796875000
-0.145111083984375
-0.0954589843750000
-0.0456542968750000
0.00463867187500000
0.0546264648437500
0.104583740234375
0.154052734375000
0.202880859375000
0.251037597656250
0.298095703125000
0.344024658203125
0.388580322265625
0.431640625000000
0.472991943359375
0.512481689453125
0.549957275390625
0.585296630859375
0.618286132812500
0.648864746093750
0.676940917968750
0.702270507812500
0.724945068359375
0.744720458984375
0.761535644531250
0.775390625000000
0.786193847656250
0.793945312500000
0.798522949218750
0.800048828125000
0.798278808593750
0.793487548828125
0.785644531250000
0.774414062500000
0.760650634765625
0.743316650390625
0.723571777343750
0.700561523437500
0.675201416015625
0.646759033203125
0.616241455078125
0.582824707031250
0.547546386718750
0.509826660156250
0.470245361328125
0.428771972656250
0.385528564453125
0.341003417968750
0.294891357421875
0.247802734375000
0.199523925781250
0.150787353515625
0.101074218750000
0.0513305664062500
0.00112915039062500
-0.0490417480468750
-0.0988159179687500
-0.148559570312500
-0.197296142578125
-0.245697021484375
-0.292694091796875
-0.338928222656250
-0.383605957031250
-0.426818847656250
-0.468414306640625
-0.508056640625000
-0.545806884765625
-0.581390380859375
-0.614654541015625
-0.645538330078125
-0.673889160156250
-0.699523925781250
-0.722503662109375
-0.742614746093750
-0.759735107421875
-0.774047851562500
-0.785064697265625
-0.793273925781250
-0.798126220703125
-0.800018310546875
-0.798645019531250
-0.794219970703125
-0.786651611328125
-0.775909423828125
-0.762298583984375
-0.745483398437500
-0.725891113281250
-0.703430175781250
-0.678100585937500
-0.650238037109375
-0.619689941406250
-0.586914062500000
-0.551513671875000
-0.514343261718750
-0.474700927734375
-0.433654785156250
-0.390502929687500
-0.346191406250000
-0.300109863281250
-0.253234863281250
-0.205078125000000
-0.156280517578125
-0.106872558593750
-0.0569152832031250
-0.00683593750000000
0.0432739257812500
0.0932922363281250
0.142791748046875
0.191925048828125
0.240142822265625
0.287506103515625
0.333679199218750
0.378570556640625
0.422058105468750
0.463714599609375
0.503692626953125
0.541625976562500
0.577392578125000
0.611083984375000
0.642120361328125
0.670745849609375
0.696868896484375
0.719879150390625
0.740631103515625
0.757812500000000
0.772674560546875
0.783905029296875
0.792541503906250
0.797698974609375
0.799957275390625
0.798980712890625
0.794891357421875
0.787628173828125
0.777343750000000
0.763916015625000
0.747650146484375
0.728149414062500
0.706237792968750
0.680999755859375
0.653625488281250
0.623260498046875
0.590698242187500
0.555755615234375
0.518585205078125
0.479370117187500
0.438354492187500
0.395538330078125
0.351226806640625
0.305480957031250
0.258605957031250
0.210571289062500
0.161926269531250
0.112426757812500
0.0626220703125000
0.0125732421875000
-0.0376281738281250
-0.0875549316406250
-0.137298583984375
-0.186248779296875
-0.234802246093750
-0.282104492187500
-0.328552246093750
-0.373535156250000
-0.417144775390625
-0.459106445312500
-0.499206542968750
-0.537475585937500
-0.573425292968750
-0.607360839843750
-0.638702392578125
-0.667663574218750
-0.693969726562500
-0.717498779296875
-0.738342285156250
-0.756042480468750
-0.771148681640625
-0.782745361328125
-0.791717529296875
-0.797302246093750
-0.799804687500000
-0.799316406250000
-0.795471191406250
-0.788604736328125
-0.778686523437500
-0.765563964843750
-0.749664306640625
-0.730529785156250
-0.708831787109375
-0.684051513671875
-0.656829833984375
-0.626861572265625
-0.594512939453125
-0.559844970703125
-0.522857666015625
-0.484039306640625
-0.442993164062500
-0.400573730468750
-0.356262207031250
-0.310791015625000
-0.263946533203125
-0.216125488281250
-0.167419433593750
-0.118164062500000
-0.0682373046875000
-0.0183105468750000
0.0319519042968750
0.0819091796875000
0.131591796875000
0.180847167968750
0.229187011718750
0.276916503906250
0.323211669921875
0.368591308593750
0.412200927734375
0.454467773437500
0.494750976562500
0.533203125000000
0.569488525390625
0.603576660156250
0.635284423828125
0.664489746093750
0.691131591796875
0.714996337890625
0.736053466796875
0.754272460937500
0.769439697265625
0.781707763671875
0.790832519531250
0.796783447265625
0.799743652343750
0.799468994140625
0.796051025390625
0.789642333984375
0.779846191406250
0.767333984375000
0.751495361328125
0.732940673828125
0.711364746093750
0.687042236328125
0.660095214843750
0.630279541015625
0.598449707031250
0.563751220703125
0.527282714843750
0.488494873046875
0.447723388671875
0.405548095703125
0.361297607421875
0.316101074218750
0.269226074218750
0.221710205078125
0.172882080078125
0.123870849609375
0.0738830566406250
0.0240173339843750
-0.0262451171875000
-0.0762634277343750
-0.126007080078125
-0.175201416015625
-0.223846435546875
-0.271362304687500
-0.318237304687500
-0.363311767578125
-0.407470703125000
-0.449676513671875
-0.490264892578125
-0.528961181640625
-0.565429687500000
-0.599853515625000
-0.631805419921875
-0.661315917968750
-0.688201904296875
-0.712432861328125
-0.733764648437500
-0.752441406250000
-0.767791748046875
-0.780517578125000
-0.789886474609375
-0.796325683593750
-0.799560546875000
-0.799652099609375
-0.796600341796875
-0.790496826171875
-0.781158447265625
-0.768859863281250
-0.753540039062500
-0.735076904296875
-0.714080810546875
-0.689819335937500
-0.663330078125000
-0.633850097656250
-0.602142333984375
-0.567840576171875
-0.531494140625000
-0.492950439453125
-0.452606201171875
-0.410247802734375
-0.366577148437500
-0.321105957031250
-0.274810791015625
-0.226959228515625
-0.178680419921875
-0.129272460937500
