0.456178988747630
0.428326971166140
0.390556944874267
0.344394907490780
0.292128856634491
0.235285789924275
0.176915704979081
0.118546599417949
0.0639914708600247
0.0163033169245750
-0.0229928647689982
-0.0508440766011416
-0.0672523209521365
-0.0737426002020832
-0.0718399167308860
-0.0645962729182384
-0.0565906711436079
-0.0478211137862210
-0.0421046032250483
-0.0379131418387891
-0.0352477320058568
-0.0310573761043638
-0.0261030765121063
-0.0188608356065492
-0.0100916557648114
-0.00284953936365075
0.00286751122055128
0.00476949361180431
0.00361940543452417
-0.00134575568645210
-0.00554699212585123
-0.00746030625794879
-0.00632170045655412
-0.000606177094995365
0.00892526145389554
0.0184556128177978
0.0249338746249167
0.0275980445039990
0.0249211200843471
0.0199560989958349
0.0142269788689221
0.0115507573346697
0.0119254320247544
0.0161140005714840
0.0218294606078124
0.0275438097673540
0.0317330456843993
0.0336331659939294
0.0317181683316311
0.0267520503339121
0.0225478096379152
0.0206324438815340
0.0225319507034275
0.0274833277430348
0.0347225726405906
0.0427246830371393
0.0492016565745508
0.0533894908955344
0.0537621836436548
0.0526087324633459
0.0514551349999266
0.0518273888996149
0.0544884918095434
0.0609634413777738
0.0682022352533118
0.0762028710861220
0.0796263465271429
0.0807606592283014
0.0780798068425278
0.0731097870237708
0.0673775974270120
0.0654592357082810
0.0665926995246699
0.0723039865343485
0.0795400943965787
0.0883020207717295
0.0955387633212918
0.0997233197078929
0.101617687595312
0.100461864648493
0.100067848533563
0.100436636917842
0.103856227469864
0.109565617859383
0.117562805757398
0.125560788836159
0.129742564769186
0.131636131231284
0.132766485898556
0.133133626448417
0.134263550559613
0.136156255912229
0.141863740187710
0.150622001068870
0.160906036239914
0.173478843386444
0.183000420195480
0.189468764355471
0.193648873556312
0.193250745489357
0.192852377847436
0.193979768324865
0.198157914617465
0.205388814422575
0.217196465439065
0.230529865367352
0.240811011909418
0.248803902768816
0.254506535650692
0.256394908261798
0.257520018310503
0.260170863506812
0.263584441562378
0.268522750190515
0.275750787106217
0.282977550026169
0.290205036668760
0.294379244754104
0.295502172004044
0.293572816142179
0.290118174893866
0.287425245986244
0.287784027148243
0.290431516110599
0.293841710605871
0.297250608368452
0.298371207134586
0.294914504642380
0.287641498631819
0.277317186844783
0.266229567025057
0.258193636918347
0.250919394272295
0.245934836836494
0.243237962362498
0.241303768603841
0.235554253316049
0.225990414256654
0.211848249185210
0.193891755863303
0.175933932054570
0.161028775524710
0.149936284041501
0.141896455374810
0.136908287296610
0.132681777580993
0.126928924004186
0.117361724344563
0.103979176382657
0.0883082779011805
0.0733990266850324
0.0607784205213167
0.0534974571993546
0.0507951345106987
0.0503804502491470
0.0499654022107571
0.0480239881938596
0.0437932059990726
0.0349850534293151
0.0246505282898211
0.0143156283881534
0.00550535153421757
0.000510695540275705
9.26582209602109e-05
0.00348923739328758
0.00917343087667234
0.0133322364929406
0.0129126520663441
0.00867767542357364
0.00139130439377300
-0.00589546319144735
-0.00936862949799660
-0.00979019668928997
-0.00563416692623493
0.00157245763278241
0.0110676748319109
0.0175114825178478
0.0209028785398530
0.0197158607497618
0.0162394270019989
0.00971157515359213
0.00547130306418548
0.00428260859605310
0.00538248961411252
0.0102969439859382
0.0152099695817752
0.0185975642745522
0.0189327259398954
0.0162154524561415
0.0112097417043516
0.00696559156832426
0.00424699993460875
0.00457996469251874
0.00949048373414542
0.0159265549543709
0.0238871762508813
0.0295583455241805
0.0329410606776029
0.0332713196173269
0.0290241202523882
0.0263014604946926
0.0243413382590298
0.0269587514630862
0.0303386980274581
0.0375321758756648
0.0447261829341618
0.0488667171323539
0.0499557764026081
0.0464663586802671
0.0422144619036618
0.0394870840141246
0.0382852229560025
0.0416608766766698
0.0480870431265415
0.0568027202590856
0.0639909060308367
0.0688905984014084
0.0699747953335066
0.0664804947929421
0.0606976947486433
0.0556763931726697
0.0529435880402239
0.0532622773296648
0.0573954590225203
0.0622911311035003
0.0687112915605089
0.0728429383846576
0.0731590695702778
0.0704226831149333
0.0646347770194333
0.0588453492878447
0.0553443979275050
0.0556579209490347
0.0582599163663498
0.0639133821966745
0.0710913164605538
0.0752177171818657
0.0755285823878340
0.0720239101090407
0.0662306983794380
0.0604359452363616
0.0569296487205421
0.0557128068761183
0.0575454177506487
0.0631934793951245
0.0696039898639817
0.0737239472151131
0.0747923495098812
0.0720451948131296
0.0662464811931961
0.0604462067219242
0.0569353694746758
0.0564749675303430
0.0598289989713603
0.0662334618837169
0.0726383543569686
0.0775156744842501
0.0778154203622866
0.0765885900914062
0.0723101817755520
0.0665041935222936
0.0637496234428396
0.0632834696520490
0.0651057302684436
0.0692164034142194
0.0740894872152590
0.0774349798011432
0.0769658793051623
0.0749711838643288
0.0691598916193888
0.0625860007148332
0.0582995092989105
0.0570644155236373
0.0596437175448111
0.0652744135220211
0.0724295016186602
0.0788219800019367
0.0829238468428855
0.0832111003163800
0.0796837386011435
0.0753917598797608
0.0710991623386895
0.0706209441682714
0.0716681035627444
0.0742406387202533
0.0760495478428617
0.0778578291365630
0.0773764808112918
0.0761315010809355
0.0718338881633452
0.0675366402803469
0.0655267556577534
0.0658052325253747
0.0698980691170296
0.0755152636705569
0.0811328144278262
0.0829347196347496
0.0824469775412920
0.0789065864014828
0.0738395444734265
0.0687728500193142
0.0652305013054340
0.0655024966021822
0.0680628341840746
0.0721485123297567
0.0769955293220149
0.0795538834477877
0.0813485729981759
0.0800905962684537
0.0757809515580797
0.0699436371707071
0.0663946514141949
0.0666599926006184
0.0715026590462796
0.0786326490717186
0.0849999610017232
0.0883145931653403
0.0893395438958861
0.0857858115309565
0.0814683944124380
0.0763882908865180
0.0728324993036948
0.0738540180187889
0.0771638453909526
0.0835239797836808
0.0898844195648211
0.0947171631065845
0.0957352087855551
0.0937005549827008
0.0870882000833834
0.0789491424773687
0.0723343805588368
0.0725859127263924
0.0758887373830745
0.0830048529363666
0.0916472577982073
0.0972359503849994
0.0997729291176207
0.0992571924214338
0.0956897387262955
0.0921205664665676
0.0893136740811260
0.0910840600133712
0.0943797227112375
0.0991996606272034
0.103256872218301
0.107313355946126
0.107554110276847
0.106268133681215
0.101166424634576
0.0968279816168740
0.0940138031126687
0.0927248876111389
0.0944872336060950
0.0993008395959877
0.104875704083917
0.108924825577644
0.109921202589597
0.108627833636881
0.103518717241293
0.0984098519293229
0.0932992362321679
0.0912398686857412
0.0922317478306802
0.0970378722123564
0.102605240380884
0.106646850891131
0.107635702302724
0.106334793180063
0.101982122092325
0.0976276876134781
0.0955614883222863
0.0965465228023208
0.0998197896419680
0.105380287434439
0.110941014777779
0.114974970274873
0.117482152533460
0.118461560166137
0.116390191790370
0.115080046028503
0.115295121507764
0.117035416860278
0.121825930723073
0.128905661738087
0.135220608552181
0.140772769817143
0.144035144189700
0.143481730331525
0.141401526909245
0.138557532594449
0.138001746063700
0.139734165998538
0.143754791085493
0.151588620016090
0.158659651486859
0.164202884199344
0.169746316860107
0.171473948180743
0.172437776877881
0.171111801673199
0.170548021293424
0.173797434470349
0.180099039940834
0.187924836446817
0.197276822735322
0.205100997558466
0.208347359673467
0.207014907842654
0.201103640833470
0.194429557418486
0.186991656375402
0.181840936487062
0.178978396541454
0.176115035331725
0.174777851656184
0.170386844318310
0.163706012126762
0.153973353895382
0.141187868443209
0.129164554594481
0.118666411178643
0.112745437030358
0.110637630989512
0.112343991901219
0.115574518615832
0.118042209988950
0.118220064881423
0.115345082159360
0.109418260694137
0.102727599362403
0.0998500970460903
0.0992607526324154
0.103248565013892
0.107997533088334
0.111983655758866
0.112916931933927
0.111560360527279
0.107913940458012
0.105029670650556
0.104434550034679
0.109177577545504
0.122312752123508
0.145365072714530
0.179861538269781
0.226563147745848
0.283944900104702
0.348955794313701
0.413202829345603
0.472871004178565
0.523383317796157
0.563976769187361
0.594651357346582
0.614643081273656
0.624715939973850
0.621055932457875
0.599846057741886
0.561851314847493
0.507834702801768
0.443135220637244
0.372330867391929
0.303815642109309
0.243691543838353
0.194247571633519
0.157009724554764
0.128926001667543
0.109233402042822
0.0941189247570798
0.0858685688923137
0.0814333335360472
0.0800482177813346
0.0809512207267671
0.0849043414764783
0.0926725791401501
0.102727932833018
0.112782401675877
0.119784984795086
0.123733681322577
0.123104490395855
0.120186411158008
0.117266442757711
0.115871584349229
0.116764835092427
0.121472194152772
0.127703660701338
0.134698233914814
0.138638912975507
0.140290697071348
0.138126585395894
0.132147577148341
0.124640671533519
0.119422867761906
0.118781165049626
0.122716562618459
0.130465059695842
0.139738655514877
0.145197349314336
0.147603140338660
0.146956027837973
0.143256011068079
0.140318089290470
0.138143261772331
0.138255527786545
0.141417886611693
0.146869337532065
0.152318879837661
0.157005512824196
0.159402235793104
0.159509048051543
0.157325948912399
0.155141937694293
0.153720013721579
0.156112176324356
0.160792424838467
0.166233758605503
0.171675176972812
0.177115679293496
0.180265264926424
0.179599933236226
0.176645683593306
0.172163515373839
0.169969427959781
0.170063420738868
0.175497493104622
0.183981644456354
0.193227874199171
0.201711181743974
0.206377566507467
0.207229027912157
0.205790565386361
0.202826178364206
0.202911866285636
0.204521628596414
0.209183464748123
0.216896374198175
0.225370356409809
0.231554410852099
0.235449536999953
0.233239734334119
0.228741002341189
0.223477340513599
0.221264748349635
0.222103225353436
0.229044771034996
0.239799384910166
0.250553066500662
0.259016815334060
0.265191630943808
0.267550512869223
0.268382460655494
0.269212473853689
0.271568552020752
0.277738694719512
0.286958901518681
0.298467171992860
0.309974505722538
0.319192902294098
0.326120361299819
0.329995882337877
0.330818465012348
0.329351108933214
0.329408813716359
0.331754578983577
0.338676404362572
0.348649289486960
0.360147233996271
0.370119237535957
0.377037299757383
0.381666420317841
0.383241598880543
0.381765835114631
0.382577128695171
0.384912479303163
0.390299886625535
0.397974350355153
0.406411870190817
0.413321445837266
0.416416077005178
0.416457763411173
0.413446504777814
0.408909300833611
0.404370151313020
0.402119055956444
0.401393014510238
0.400666026726709
0.398412092364116
0.394632211186676
0.387798382964559
0.377149607473894
0.363447884496771
0.350508213821238
0.338330595241308
0.328441028556954
0.320839513574117
0.313236050104701
0.305632637966580
0.294976276983593
0.282029966985550
0.265267707808231
0.247741499293388
0.227926341288746
0.211924233648000
0.198973176230824
0.190599168902864
0.185275211535742
0.181477304007060
0.176914446200393
0.170824638005299
0.163208879317311
0.154829170037944
0.145684510074694
0.138065899341036
0.132734337756428
0.131217825246308
0.131988361742100
0.133519947181206
0.134288581507017
0.133530264668902
0.127430996622219
0.119804777328306
0.112176606754488
0.106837484874075
0.103785411666361
0.103784387116624
0.107596411216129
0.111408483962125
0.112930605357847
0.111399775412515
0.107578994141332
0.100706261565490
0.0938325777121629
0.0892459426145101
0.0884733563116756
0.0915148188487876
0.0968433302769585
0.101408890653284
0.104447500040844
0.105196158508699
0.103654866131895
0.0990606229914583
0.0929404291743965
0.0891072847736987
0.0890881898883344
0.0936461446232526
0.100491149089381
0.108098203403627
0.113416307688874
0.116444462073983
0.115656666693792
0.111815921689111
0.107211227206729
0.103369583399404
0.102577990425870
0.103311448450829
0.108620957644957
0.115456518184896
0.120001130253257
0.123782794038621
0.125274509735530
0.122187277544495
0.118337097671987
0.116010970330441
0.116735895738253
0.119747874119776
0.125048905705324
0.129585990731165
0.133358129439523
0.134841322078575
0.134034568902451
0.130175870171230
0.125552226150940
0.122453637113557
0.121643103337000
0.125409625105134
0.130701202707763
0.136753836440634
0.141280526605429
0.143517273509768
0.142701077467205
0.138831938797225
0.133435857825245
0.130328834882608
0.129508870306584
0.131738964440367
0.137021117633073
0.142302330239737
0.143766602621312
0.142942935144664
0.139065328182575
0.132134782113733
0.125204297322739
0.121323874200094
0.118968513142208
0.120427214551386
0.124936978835834
0.130207806409654
0.134715697692838
0.136933653111271
0.133809673096724
0.128396758086853
0.122981908525196
0.119855124861170
0.119016407550069
0.120465757053060
0.124203173837179
0.128702658375334
0.133200211146293
0.133882832634687
0.130749523331007
0.124564283731598
0.117614114338658
0.112190015660233
0.109815988210217
0.111256032508345
0.117272149080191
0.124814338457168
0.132354601176517
0.137605937781314
0.137515348820455
0.133608834848664
0.126650396426480
0.120453034120259
0.117306748502169
0.116448540150185
0.118641409648089
0.121596357585460
0.123787384557678
0.123688491165915
0.120536678017132
0.115094945724076
0.109653294905277
0.105735726185041
0.105632240193450
0.110105837566356
0.116866518945374
0.125153284977886
0.131149136317028
0.132567073621692
0.130169097556517
0.123956208791891
0.116215408003941
0.110763695874532
0.107599073091259
0.109774540347449
0.116526098342151
0.123277747780134
0.127738489371881
0.128384323833588
0.127503251887153
0.124333274260180
0.120398391685967
0.117225604903506
0.117103914657474
0.119270321698234
0.124486826781826
0.129703430669963
0.134156134130025
0.134792937935060
0.131613842863771
0.125381849700517
0.118386959235304
0.112916172263785
0.111259489587249
0.113416912012620
0.119388440352452
0.127647075424921
0.132853818053823
0.135769669068565
0.133345629304165
0.127104699601241
0.121626880806011
0.116910173770284
0.115244579351456
0.116630098412503
0.122591731821979
0.128553480454008
0.134513345188278
0.136658326910036
0.134987426510084
0.129501644884773
0.122487982935994
0.117000441571176
0.114563021703279
0.114413724250789
0.118078550137710
0.123267500293561
0.128456575653368
0.129829777157660
0.128150105752460
0.124180562389283
0.118685148025126
0.115476863622466
0.115319710149251
0.118975688578893
0.124920799890266
0.130102045067697
0.132992425100960
0.132067940985268
0.128854593721272
0.124113384315048
0.117845313778097
0.113866383127334
0.112937593385083
0.115059945579072
0.119469440742423
0.125405079913649
0.129812864136648
0.131168794460691
0.130234871940421
0.125486097635844
0.120735472612323
0.115221997940570
0.113521674696641
0.114109503961926
0.117747486823148
0.122911624372351
0.127311917706892
0.130184367929442
0.129241976147970
0.123721743475740
0.117436671031306
0.112677759938502
0.110969011326433
0.113836426329473
0.118993006087256
0.126436751744666
0.132354664451833
0.135219745364125
0.135031995642140
0.131028416451697
0.125498008963835
0.119967774354798
0.116724713806031
0.118058828504173
0.122444119641050
0.129879588413664
0.135789236024190
0.140171063679965
0.139212072593481
0.135963263982379
0.131951639069440
0.128701199082578
0.129264945254831
0.132879878824354
0.140308001034412
0.150024313133369
0.159739816374686
0.166403512016906
0.169251401323651
0.166757485563614
0.161973766010548
0.157190243943259
0.155456920645599
0.159062797406458
0.164957875519755
0.172377156284430
0.179796641004434
0.184162330988726
0.184713227551258
0.182974332010972
0.180472645691790
0.179495169922603
0.180805906037267
0.186692855374593
0.194105019278336
0.203043399097189
0.209690996184776
0.210997811899640
0.205436847605236
0.193772104669921
0.179055584466950
0.163574288374461
0.150381217775471
0.144053374057865
0.142302758614388
0.142077372842635
0.141851218145045
0.137810295928888
0.129952607606261
0.121332154594075
0.111947938314048
0.105613960192695
0.102331221661320
0.103625724156007
0.107208469117610
0.113079457991745
0.115896692228780
0.116425173283824
0.113900902616723
0.109087881692047
0.101984111979080
0.0971695949518130
0.0946423320889344
0.0959293248738193
0.100266574794521
0.106130083343763
0.112754852018925
0.117853882322040
0.122189175759780
0.128048733843446
0.138485558088964
0.158077650016868
0.192164011152298
0.243797643024983
0.310688547169236
0.385209725123945
0.456677178432559
0.518225908643082
0.563751917308061
0.591730205984577
0.606737776234238
0.608011629623163
0.597840767721977
0.575461192105800
0.539348904354235
0.491791906051363
0.432790198785726
0.366920784150322
0.299524663742595
0.235942839164421
0.180752312022103
0.137006083926356
0.103940156492301
0.0823165313394513
0.0706112100917045
0.0672971943773316
0.0693234858289667
0.0713490860835968
0.0726109967825510
0.0715832195714909
0.0690287561003997
0.0687626080235717
0.0700217769996022
0.0750952646913769
0.0816930727660611
0.0882902028950899
0.0933616567541566
0.0946174360232033
0.0920575423864092
0.0864459775321806
0.0808327431531402
0.0775078409461162
0.0772342726121317
0.0807750398563940
0.0873661443882835
0.0954835879213437
0.103599372173269
0.107137498865896
0.106096969725190
0.101240786481236
0.0948589508682283
0.0900014646244559
0.0881953294922963
0.0902035472182012
0.0960251195526873
0.101847048250324
0.107667335069722
0.111198981773525
0.110914990128395
0.107578361905003
0.102716098878019
0.0993782028260958
0.0998546755318648
0.103382518781920
0.109197734366808
0.117302324081015
0.123116289722961
0.125878633094981
0.126351356003318
0.123771460258112
0.121953947673387
0.119372820067037
0.120606079260822
0.124890727080349
0.130699765355064
0.137272195918239
0.141554020606963
0.142784241262128
0.138673859728417
0.133798877854294
0.128923297491992
0.127099120497501
0.129089348730555
0.134130984054623
0.142223028336896
0.149551483448273
0.155354351263353
0.158867633660421
0.159328332521435
0.156736449732018
0.153380987181441
0.150787946762616
0.153535330372080
0.160096139909985
0.170472377280088
0.180084044389735
0.188169143149849
0.192439675474923
0.194420643283003
0.192586048495677
0.189224893038064
0.185863178838801
0.186315907830030
0.189820081947389
0.197900703129995
0.209032773320437
0.218638294464759
0.225955268512449
0.228693697416430
0.228379583133044
0.227301927622041
0.228512732846564
0.233537000773142
0.242375733371674
0.254265932615416
0.268444600480970
0.278807738948272
0.286882350000578
0.291140435624451
0.290820997809752
0.291264038549624
0.292469559840479
0.295200563681989
0.301745052077069
0.310579027031870
0.320937490555759
0.327480444661312
0.331734891364299
0.331410832683674
0.329560270641556
0.325420207263223
0.322806644577096
0.322480584614726
0.325205029410783
0.330981981003040
0.337520441432365
0.341770412742701
0.342204896981061
0.338060896197510
0.330102412445154
0.320617447780125
0.312657004261570
0.305460083951639
0.302076688915469
0.302507821221172
0.301412482939823
0.298790676145447
0.292354402915004
0.281338665328377
0.264983465468359
0.244811805420641
0.228455687273796
0.213624113119268
0.204132085051358
0.196929605167212
0.190488675566805
0.181759298352930
0.170740475631185
0.156669209509958
0.140308502100415
0.123948355516486
0.109875771874852
0.0980917532949310
0.0901213018988657
0.0859664198115093
0.0825731091604125
0.0784163720758093
0.0712082106906048
0.0609466271403607
0.0476336235632819
0.0343202021002038
0.0232953648945776
0.0160851140924580
0.0157404518424884
0.0176843802958887
0.0226789016064402
0.0253850179304733
0.0250387314268532
0.0216400442569665
0.0151899585847072
0.00797547657646375
0.00152460040110438
-0.00263866777003551
-0.00375032576316783
-0.000284371402065477
0.00546919749192434
0.00969738309986601
0.0123991876052219
0.0112856131938383
0.00788266205393205
0.00142833637607626
-0.00273836164681297
-0.00385342981949106
-0.000390865944398244
0.00688533217832602
0.0133981667508299
0.0191486399775344
0.0218467540651202
0.0199665112225132
0.0142709136608707
0.00781296359356782
0.00211666323618286
0.000235014806483885
0.00140502052441421
0.00715268261207910
0.0144250032937308
0.0216969847957553
0.0243916293466579
0.0255599391770489
0.0229129165196303
0.0187405636091810
0.0145668826825425
0.0134448759786058
0.0161375457382960
0.0211178942045595
0.0268619236223484
0.0310786362386074
0.0330070343022591
0.0303571200641901
0.0254188957772364
0.0204793636961696
0.0170655260776822
0.0182293851803739
0.0209189432647368
0.0281852025931415
0.0346891654298226
0.0373778340408644
0.0370142106941869
0.0343612976595311
0.0278930972084447
0.0221886116142680
0.0187718431521192
0.0176437940988807
0.0210934667331837
0.0260678633353948
0.0333319861876008
0.0375428375735949
0.0379394197788620
0.0360467350905642
0.0303397857975265
0.0223425741902223
0.0166351025607589
0.0139783732028631
0.0158993884118667
0.0208711504846918
0.0273696617198366
0.0315789244173608
0.0327349408788711
0.0293147134075061
0.0228412443079229
0.0156055358862815
0.00989459045023067
0.00799841030889339
0.00839099777285227
0.0125983551541346
0.0183304847661986
0.0217743889239177
0.0221660699435667
0.0179795301428069
0.0115047718406716
0.00502879735755130
0.00160460901517882
0.00123220913661525
0.00467460004623456
0.00964278406970978
0.0138467635339973
0.0172885407673232
0.0169151180991674
0.0142524978602504
0.00777568238251701
0.00129767399912284
-0.00365352495558120
-0.00479091214606321
-0.00287748523562504
0.00132575811358245
0.00552882024054528
0.00896770348537102
0.00859241018927448
0.00592894269456260
0.000212303344619878
-0.00550450551610674
-0.0104574815421223
-0.0123596223868989
-0.0104469257028902
-0.00624638914154694
-0.000519010353330844
0.00444421301226971
0.00711928330672556
0.00521620288245141
0.00102497409279100
-0.00393040070799747
-0.00659691916475638
-0.00697457892144353
-0.00277437762114719
0.00295068709389938
0.00867661758230251
0.0121134162034940
0.0117350853177154
0.00983062728600364
0.00411104447017574
-0.00160766076718569
-0.00656448606274764
-0.00923242905244155
-0.00884848737147840
-0.00541265865436337
-0.000451940534910787
0.00374666935374050
0.00413017337911275
0.000698573909373890
-0.00578412668667706
-0.0122679260396252
-0.0179878217794544
-0.0198938115355629
-0.0195108929367776
-0.0153140636113693
-0.00806432118706769
-0.00234166329107648
0.00185591244991200
0.000712408409701243
-0.00424617303742366
-0.0114928295167116
-0.0172145586529606
-0.0198843580705321
-0.0195022253933666
-0.0153051582449981
-0.00958315424857002
-0.00309721102684904
-0.000426326202241180
-0.00233349739680588
-0.00805572223227189
-0.0130139983300516
-0.0179733233112565
-0.0183546947967120
-0.0164471104069722
-0.0122515677623359
-0.00805506448286011
-0.00309559818837671
-0.00195216649850596
-0.00309576703267282
-0.00652939741012100
-0.0122520552499288
-0.0164487381710234
-0.0183554437921966
-0.0164491697321191
-0.0114899136093563
-0.00729367304238302
-0.00462444564959823
-0.00500622904934048
-0.00767602085990305
-0.0126358186995485
-0.0183586201865241
-0.0233174229390769
-0.0236992245754682
-0.0210300227139895
-0.0160708149729769
-0.00882359897082628
-0.00310137232600823
0.000331867342916486
-0.000812877582717558
-0.00500960472169604
-0.0122573116929392
-0.0187429961155178
-0.0206506556086673
-0.0179802877918036
-0.0114958902845376
-0.00272146070669006
0.00452600332169251
0.00872250418032376
0.00986704424866169
0.00719662590589453
0.00223725153092468
-0.000433076497645450
0.000711644198470925
0.00490841599723039
0.0113932412762440
0.0186421224127627
0.0236010617836614
0.0247460617654252
0.0220761247341334
0.0171182530654449
0.0121594491345833
0.0102527153163214
0.0129240539849668
0.0201724675143468
0.0304729582777929
0.0415375286481264
0.0510751809976430
0.0567979176980983
0.0587067411206923
0.0568006536360546
0.0548946576142298
0.0514637554246617
0.0503209494361794
0.0499412420169814
0.0518496355346213
0.0537591323559922
0.0526167348473126
0.0468974453741108
0.0373622663012100
0.0232511999927137
0.00837624881199034
-0.00420958487834085
-0.0137442987164259
-0.0171738903411899
-0.0183153573923530
-0.0179306975104442
-0.0183089083368170
-0.0209759875136642
-0.0259319326840325
-0.0339387414918377
-0.0427094115818792
-0.0476639405998554
-0.0495673261923782
-0.0484185660069879
-0.0419296576921682
-0.0339135988973606
-0.0281873872729801
-0.0262750204704291
-0.0281774961421131
-0.0346568119414547
-0.0434259655229089
-0.0506679545419781
-0.0525697766552261
-0.0491304295202941
-0.0388249107959142
-0.0254672181419250
-0.00829534921928657
0.0126926983099058
0.0390199267824056
0.0745043385338014
0.119142935898501
0.172174721209719
0.230546696799458
0.288918864998498
0.341951228136380
0.383539788541389
0.409869548540544
0.420177510459581
0.412937676622935
0.387388049353733
0.346580630973771
0.292802423803505
0.231395430162034
0.166936652367086
0.105530092735003
0.0487007535807271
-0.000498362782215781
-0.0420682540417283
-0.0775339178871578
-0.105370352009310
-0.127865554100466
-0.142731521854391
-0.148441252966357
-0.146522745133150
-0.136972996053090
-0.122846003426042
-0.108719764953431
-0.0968812783382592
-0.0896195412851167
-0.0861735515001990
-0.0842523066913197
-0.0838568045679261
-0.0811720428411128
-0.0777240192236367
-0.0696987314299315
-0.0631991771761212
-0.0559353541800361
-0.0532492601612256
-0.0536148928409739
-0.0585582499423137
-0.0650273291900403
-0.0714951283107269
-0.0756746450327382
-0.0760388770862452
-0.0725878222032389
-0.0653224781175454
-0.0572928425648398
-0.0515529132826605
-0.0496266880104235
-0.0507521644894367
-0.0549293404629144
-0.0575792136759910
-0.0587037818757360
-0.0552510428111673
-0.0487449942332662
-0.0414766338949913
-0.0342069595512927
-0.0307529689591263
-0.0303496598774675
-0.0337610300673259
-0.0394600772917595
-0.0443967993158882
-0.0470441939069085
-0.0451132588341072
-0.0386039918688758
-0.0305693907847244
-0.0248224533572959
-0.0228911773643797
-0.0224845605859264
-0.0274176008040609
-0.0315882958030973
-0.0357586433695524
-0.0361136412921596
-0.0334162873618834
-0.0261415793719325
-0.0181025151177750
-0.0108270923971505
-0.00660230901008603
-0.00542916275890840
-0.00730765144825892
-0.0107117728851069
-0.0125895248787635
-0.0121779052408958
-0.00871391178554053
-0.00219854232911768
0.00660720530955567
0.0123603333092511
0.0165888438463159
0.0162397390946586
0.0128390212257355
0.00867569240853724
0.00527575480957473
0.00569121059286548
0.00839606191992020
0.0156793109497289
0.0237249598387476
0.0317710107408839
0.0375294658074846
0.0402353271873210
0.0406535970265760
0.0395462774688303
0.0392023706550488
0.0419108787235673
0.0491978038100788
0.0580101480476202
0.0691119135665584
0.0771621024945777
0.0844507169566652
0.0879237590750986
0.0875832309694317
0.0849551347564819
0.0838524725503163
0.0865642464622384
0.0923294586007750
0.101909111071663
0.113015205977835
0.123358745419408
0.131414731493668
0.135655166295059
0.136845051915167
0.135746390442710
0.133885183963521
0.134313434560540
0.138557144313795
0.144327315300392
0.152385949594504
0.158156049267352
0.160875616387199
0.160543653019330
0.155634161226045
0.149200143066642
0.142765600597404
0.138621535871590
0.137528950939418
0.139488847848052
0.142974228641593
0.144935095361061
0.143081450044388
0.137414294726397
0.126406631438798
0.112347462210170
0.0975257890659480
0.0842306140284132
0.0747509391166773
0.0675597663466715
0.0611330977311334
0.0554689352795936
0.0459912809983640
0.0349881368905243
0.0224595049559102
0.00764238719109980
-0.00717421441059823
-0.0189382978591577
-0.0276508611678471
-0.0340729023532425
-0.0382064194352397
-0.0431014104370674
-0.0518118733852987
-0.0628098063098643
-0.0768592072440648
-0.0924340742245829
-0.108007405291496
-0.118241198488289
-0.124658451861865
-0.126498163462561
-0.126048331344155
-0.126360953563883
-0.128962028182450
-0.132325553264042
-0.138739526876336
-0.147441947090517
-0.155381811981285
-0.161031119626870
-0.162865868109046
-0.161648055513139
-0.157378679928040
-0.154633739446220
-0.154940232163739
-0.158298156180259
-0.163943509599057
-0.171115290527035
-0.174471497074733
-0.175538127356342
-0.172789179489714
-0.167750651596374
-0.161186541801534
-0.156909848234104
-0.154158569026700
-0.155984702315662
-0.161625246241063
-0.166501198946719
-0.170614558580202
-0.169386323292853
-0.165106491239792
-0.155484060579932
-0.145862029475987
-0.137765396094485
-0.135771158605782
-0.137591315184071
-0.143225864007394
-0.150384803257654
-0.156780131120624
-0.160886845785965
-0.160414945447229
-0.156891428301875
-0.151077292551283
-0.145263536400759
-0.141737158059550
-0.142025155740856
-0.145364527661840
-0.150228272043637
-0.152803387111371
-0.153088871094161
-0.150321722225133
-0.146028938741436
-0.140208518884244
-0.135151460898777
-0.134670763034305
-0.136477423544161
-0.140573440685756
-0.145431812720582
-0.148763537914230
-0.149042614536400
-0.146269040860906
-0.141205815165697
-0.135379935732857
-0.130315400848623
-0.128302208803396
-0.131629357891746
-0.138007846412429
-0.146673672668394
-0.154575834966796
-0.158663331619003
-0.158172160940612
-0.154628321251456
-0.148795810875616
-0.143724628141429
-0.142467771381502
-0.144262238932723
-0.148345029136266
-0.153953140337607
-0.158033570886534
-0.159062319137153
-0.157801383447904
-0.155014762181566
-0.151463453705274
-0.150200456390521
-0.150462768613176
-0.153013388753489
-0.158614315196104
-0.164978546330068
-0.170578080548843
-0.172362916250312
-0.172621051836794
-0.167538485715052
-0.161691216296299
-0.158133241996218
-0.156862561234962
-0.158643172437169
-0.165000074031971
-0.172120264453003
-0.178475742138414
-0.181016505530879
-0.179741553077603
-0.175413883230335
-0.168034494445378
-0.161417385183598
-0.157850553910432
-0.158860999095900
-0.162921719214614
-0.169271712745786
-0.175619978173241
-0.179679513985424
-0.181449318675409
-0.178640390740911
-0.174305728684294
-0.170732331012580
-0.167921196237459
-0.168924322875299
-0.172215709447155
-0.177794354478777
-0.181847256500621
-0.184373414047858
-0.181557825660384
-0.177216489882825
-0.172110405264554
-0.167003570359690
-0.165711983727118
-0.167469643930489
-0.172279549538235
-0.179377699123574
-0.184185091264523
-0.185940724543904
-0.185406597549353
-0.180294708873330
-0.174418057113129
-0.170066640870884
-0.168767458753580
-0.171280509373060
-0.177608791346037
-0.184698303294099
-0.190262043843718
-0.193536011626264
-0.191468205278005
-0.186347623440124
-0.178175264758721
-0.172290127884827
-0.167931211474407
-0.168148514188373
-0.172179034692591
-0.179261771657888
-0.184054723760064
-0.186556889679894
-0.185244268103145
-0.180879857720576
-0.175750657227951
-0.171384665326047
-0.169305880720660
-0.171041302122615
-0.175063928247775
-0.180612757817044
-0.185397789556383
-0.187129022196812
-0.185809454474419
-0.180673085130371
-0.174010912910917
-0.169635936567401
-0.168312154856266
-0.170802566539066
-0.176343170382468
-0.182646965158265
-0.187423949643382
-0.189910122619882
-0.189344482874976
-0.184201029201030
-0.177529760395572
-0.170858675261302
-0.168000772606095
-0.169720051243012
-0.176016509990308
-0.182311147671436
-0.187079963115058
-0.188795955155051
-0.185933122630513
-0.180017464385773
-0.172575979270397
-0.166658666139193
-0.164556523852223
-0.166267551274807
-0.170265747277530
-0.177316110736250
-0.182075640532105
-0.185309335551522
-0.183201194686219
-0.178804216833217
-0.172116400894845
-0.166191745778747
-0.163317250397887
-0.163493913670561
-0.167484734520397
-0.173762711876370
-0.179277844672798
-0.182502131849361
-0.182674572351098
-0.178269165128417
-0.172335909137103
-0.166402803338325
-0.163519846698638
-0.164451038189993
-0.169196376789745
-0.175465861480656
-0.180972491250903
-0.184188265094085
-0.183590182009226
-0.178412241000788
-0.171707441078671
-0.164239781258221
-0.157534260560237
-0.155404878010978
-0.155563632642167
-0.157247523490998
-0.158930549600143
-0.158323710017757
-0.154664003797483
-0.149477429998462
-0.144290987685333
-0.139865675928244
-0.137728493802855
-0.138642440390347
-0.141844514777423
-0.145808716056316
-0.149771043324798
-0.149155495686180
-0.145488072249322
-0.137240772128636
-0.128230594444093
-0.119219538321230
-0.114784602891151
-0.111875787290536
-0.112779090661646
-0.115971512152329
-0.118400050916023
-0.116249706111763
-0.111047476904186
-0.102791362463538
-0.0937723619656749
-0.0862784745920728
-0.0825976995298295
-0.0819680359716714
-0.0859154831159578
-0.0929130401666865
-0.0999107063334984
-0.105380480831683
-0.110087362882182
-0.112504351711597
-0.113394446552191
-0.116571646641896
-0.121274951224316
-0.129791359548732
-0.141358870870109
-0.153688484449097
-0.163729199552039
-0.171479015450972
-0.175413931423637
-0.177821946753478
-0.177177060729648
-0.177294272647018
-0.178173581806175
-0.181339987513429
-0.185269489080819
-0.190724085826115
-0.195413777072824
-0.197814562150193
-0.196399440393214
-0.191932411142628
-0.187463473744928
-0.184519627552366
-0.185389871922953
-0.189311206220468
-0.193993629814458
-0.199439142080244
-0.200305742398922
-0.195067430157373
-0.182962204748259
-0.162464065570034
-0.133572012026945
-0.0962870435290314
-0.0483201594921372
0.00880264066209187
0.0712673575062022
0.132970991606929
0.189333543525193
0.237305013816096
0.274596403028920
0.301970711707118
0.318664940388319
0.320864089604316
0.304753159881069
0.271096151738699
0.219892065691485
0.157244902247859
0.0892576619104063
0.0227973451758609
-0.0383210474648987
-0.0887575155268518
-0.129275058530839
-0.160635676003563
-0.185892367477596
-0.205808132491378
-0.221906970589223
-0.232665881321319
-0.237318864243736
-0.235867918918421
-0.230602044913207
-0.220757241801814
-0.206333509163851
-0.194960846584820
-0.188164253656116
-0.186707729975033
-0.191354275144763
-0.198287888774402
-0.203695570478951
-0.206813319879316
-0.206878136602316
-0.202364020280678
-0.194797970553046
-0.186466987063980
-0.181188069463958
-0.178196217409381
-0.180544430562571
-0.185179708591776
-0.189815051171172
-0.192923457980864
-0.193741928706888
-0.189981463041214
-0.183169060681748
-0.175591721332331
-0.169540444702746
-0.168065230508716
-0.171167078471906
-0.176555988319926
-0.181181959786332
-0.182754992610628
-0.181275086538268
-0.176742241320658
-0.170683456715154
-0.163096732485069
-0.158562068399670
-0.157840464234183
-0.159406919769790
-0.164023434793636
-0.167114009098825
-0.166388642484424
-0.161847334755465
-0.154254085722945
-0.145896895203827
-0.138300763021040
-0.135281689003484
-0.136076672986028
-0.140685714809510
-0.146056814320742
-0.149136971372507
-0.149165185823564
-0.144615457538642
-0.137011786388451
-0.127119172249672
-0.118751615004967
-0.113434114542973
-0.110404670758306
-0.111189283551562
-0.114261952829314
-0.118096678504120
-0.118878460494514
-0.115844298725014
-0.108995193126118
-0.100618143634308
-0.0914781501920472
-0.0869142127477827
-0.0854013312559445
-0.0877025056769459
-0.0922917359771843
-0.0945910221290410
-0.0946003641108816
-0.0915567619070559
-0.0846982155078982
-0.0778377249097271
-0.0694512901148459
-0.0633519111315422
-0.0603035879740880
-0.0595443206627399
-0.0603081092237383
-0.0603089536893078
-0.0572578540976568
-0.0526788104929772
-0.0458108229254444
-0.0358888914512163
-0.0267300161324338
-0.0183331970372199
-0.0122234342396792
-0.00763972781989789
-0.00610607786394266
-0.00228248446386056
0.00306705228232174
0.0122335322705985
0.0244519553909857
0.0366713215275216
0.0466026305582676
0.0519578823553088
0.0534980767847550
0.0504632137067417
0.0466652929754307
0.0436313144390109
0.0451762779396998
0.0490111833137440
0.0558980303914205
0.0650758189970377
0.0712015489489366
0.0742772200594916
0.0743018321351123
0.0697493849762441
0.0621468783773699
0.0560703121270113
0.0515216860077297
0.0492619997961280
0.0500552532628520
0.0516124461725915
0.0524075782840821
0.0493886493501069
0.0425556591174974
0.0319096073271358
0.0189754937139565
0.00604231800694725
-0.00536392007084835
-0.0144802208023298
-0.0213075844763373
-0.0266070113876504
-0.0319065018369859
-0.0410190561309960
-0.0524196745822664
-0.0661083575093141
-0.0828481052365857
-0.0972969180944552
-0.108694796419222
-0.119327740553108
-0.126907750844257
-0.132198827646732
-0.138250971320511
-0.146592182231487
-0.155694460751466
-0.167847807258162
-0.181526222135197
-0.192914705772099
-0.200487258564295
-0.204244880913116
-0.204186573225787
-0.201075335915430
-0.198726169401057
-0.199428074107571
-0.202418050465762
-0.209984098912302
-0.219076219889747
-0.227403413846530
-0.233441681236959
-0.236426022521216
-0.235595438165353
-0.233238928641287
-0.230117494426801
-0.226995136005539
-0.228449853867000
-0.233717648506542
-0.240511520425371
-0.246540470130542
-0.249517498134959
-0.247915604957362
-0.243261791122334
-0.234791057160293
-0.227846403607487
-0.224714831005993
-0.224634339903717
-0.228367930854381
-0.233625604417529
-0.238883361158519
-0.241851201648520
-0.241766126464508
-0.237102136189263
-0.230149231411367
-0.223957412725195
-0.220053680730918
-0.219964036034494
-0.222162479247667
-0.225886010987962
-0.229608631878681
-0.230278342548899
-0.227895143633462
-0.221696035772979
-0.214734019613823
-0.207770095808122
-0.203095265013759
-0.202233527894363
-0.205185885119311
-0.210425337363720
-0.216427885308441
-0.218613529640059
-0.217748271050885
-0.212303110238957
-0.205331047908026
-0.199122084767562
-0.195963221532743
-0.195855458924452
-0.198798797669275
-0.204030238499492
-0.207733782153074
-0.209148429373682
-0.205984180910657
-0.201294037519016
-0.195838999959453
-0.191147068998326
-0.189505245407658
-0.188625529965129
-0.191558923454074
-0.195255426663474
-0.198188040387955
-0.199593765427780
-0.197183602588847
-0.193246552682681
-0.188546616526429
-0.185370794942859
-0.184483088760347
-0.185883498812880
-0.190334025940047
-0.194784670987031
-0.200760434804610
-0.203682318249146
-0.202789322182581
-0.199607447472434
-0.193371694991794
-0.187899065619311
-0.184713560239198
-0.184579179741219
-0.188258925020684
-0.193462796978446
-0.197903796520897
-0.199291924559954
-0.198390182013062
-0.195961569803185
-0.192006088858799
-0.190338740113886
-0.190959524507931
-0.193105442985913
-0.199065496498303
-0.205786686001051
-0.209456012455587
-0.210835476828812
-0.209162080093091
-0.202146823226249
-0.193605707211563
-0.185826733037756
-0.182623901698994
-0.183235214194873
-0.187659671530419
-0.195899274716080
-0.202611024767716
-0.206270922706598
-0.206877969559398
-0.203669166358185
-0.198933514140415
-0.194961013948927
-0.192512666831936
-0.192352473843027
-0.195243436041147
-0.198895554490598
-0.203310830261033
-0.206199264427446
-0.206034858070168
-0.202817612274856
-0.198836528132491
-0.194092606739370
-0.191635849197096
-0.190704256612574
-0.194349830098002
-0.198756570770868
-0.203163479753938
-0.205280558175250
-0.202818807168109
-0.196541227871079
-0.188737821427975
-0.181695588987857
-0.177705531705020
-0.178291650738990
-0.182690947254515
-0.190142422421560
-0.195303077415293
-0.198174913416087
-0.195704931609504
-0.190946133186294
-0.183896519342383
-0.178373091278867
-0.175899850202006
-0.178003797323213
-0.183157933859049
-0.189838261031216
-0.195753780066545
-0.198617492196994
-0.198428398659635
-0.194423500696650
-0.188129799555320
-0.182597296488021
-0.178589992752211
-0.177633889610427
-0.180491988330275
-0.184875290184420
-0.189256796450582
-0.190586508411523
-0.189626427355046
-0.184851554573978
-0.177785891366168
-0.172246439034479
-0.168994198886775
-0.168793172235918
-0.172406360399754
-0.177543764701113
-0.181918386467791
-0.186292227032549
-0.186849287733101
-0.185118569912106
-0.180334074917161
-0.177837804100789
-0.176866758820437
-0.178183940438458
-0.180263350322113
-0.185392989843552
-0.187470860379815
-0.187258963312814
-0.184757300029333
-0.177677871921012
-0.170597680384344
-0.164278726820662
-0.161774012636130
-0.162320539241740
-0.166681308053295
-0.171803320491406
-0.176925577981480
-0.179758081953712
-0.179537833843076
-0.176264835089316
-0.171465087136937
-0.167428591435194
-0.165679349438087
-0.166981362604347
-0.169807632397429
-0.174923160285505
-0.179274947741450
-0.179810996242837
-0.176531307271924
-0.170961882315648
-0.163103722865613
-0.156769830418083
-0.153488206473971
-0.154018852538827
-0.158364770122835
-0.164235960740798
-0.169342425912128
-0.171397167160843
-0.168873186015549
-0.164823484009435
-0.159246062680263
-0.153667923570359
-0.150379068226600
-0.150903498200407
-0.154478215047735
-0.159579220329060
-0.163915515609376
-0.166726102458178
-0.166483982449455
-0.162427157161682
-0.156079628177805
-0.148206397085236
-0.143383465475840
-0.140848834945928
-0.141365507096243
-0.144933483531951
-0.148499765862634
-0.151303355702274
-0.150291254669250
-0.145464464386322
-0.139872986480623
-0.135043822583647
-0.130214974331243
-0.129199443363599
-0.131235231325237
-0.135558339864997
-0.139881770636033
-0.141152525295797
-0.137844605506031
-0.133010012932756
-0.124360749246262
-0.115710816121098
-0.108585215236059
-0.103748948274178
-0.101963016922713
-0.100176422873139
-0.0983891678211351
-0.0943122534665751
-0.0879466815135161
-0.0800534536701877
-0.0721605716489814
-0.0665550371664402
-0.0632388519432470
-0.0622100177042138
-0.0649955361782717
-0.0700684090984590
-0.0736156382019104
-0.0748732252298466
-0.0723151719275625
-0.0667044800444170
-0.0595681513338211
-0.0524301875532275
-0.0498705904641190
-0.0518863618319980
-0.0577175034263747
-0.0681250170207559
-0.0800579043926347
-0.0889381673234779
-0.0947668075987160
-0.0967798270077310
-0.0987922273438459
-0.0992770104043125
-0.104340177990301
-0.110165731906887
-0.121330673963043
-0.133258005971623
-0.143658729749356
-0.150243847116828
-0.152251359898478
-0.148154269922580
-0.142531579021236
-0.136144289030360
-0.132809401789673
-0.133286919142684
-0.138342842936681
-0.144924175022724
-0.151503917255627
-0.156558071493947
-0.158558639599976
-0.158270623439727
-0.154168024882921
-0.149300845802978
-0.142908088077003
-0.136513753585775
-0.129356844213733
-0.120672361848969
-0.103596308383211
-0.0743116857118138
-0.0297674957337464
0.0323242596484205
0.106623578528526
0.182449458996830
0.252171899140028
0.308162897041262
0.345080450780130
0.368265558432703
0.376956218071531
0.374965427765663
0.363057185580651
0.338942489578569
0.301858337818021
0.253329728354154
0.195647659238673
0.128810128519849
0.0604481342425354
-0.00486232555182288
-0.0602542528251749
-0.102674649542852
-0.132888517673556
-0.150893859189345
-0.160506676065624
-0.162489970281128
-0.162183743817914
-0.160350998661345
-0.159280736800082
-0.158972960226063
-0.157902670934501
-0.154541870923863
-0.147365562195862
-0.139426746755442
-0.130724426610767
-0.124309603773207
-0.120946280257326
-0.121397458080870
-0.126426139264750
-0.132979325833037
-0.140296019812943
-0.143033223234808
-0.141955938132091
-0.137064166541357
-0.129118910502259
-0.120411172057531
-0.113228953252971
-0.109097256137430
-0.110306082762800
-0.113040435183998
-0.117299315458957
-0.117743725648609
-0.114372667816873
-0.107187144030646
-0.0992381563597835
-0.0912877068770910
-0.0871517976583090
-0.0860684307821009
-0.0865086083300389
-0.0907643323865915
-0.0942566050391100
-0.0946964283778155
-0.0913208044957855
-0.0841307354889408
-0.0769392234560324
-0.0712742704986280
-0.0686598787210988
-0.0698600502306058
-0.0748737871370879
-0.0798880915532465
-0.0833749655945339
-0.0830474113791386
-0.0773794310279733
-0.0686590266646602
-0.0584112004155184
-0.0489269544095499
-0.0432562907784268
-0.0421642116564774
-0.0433587191806726
-0.0498948154906128
-0.0541405027285140
-0.0568607830391945
-0.0550026585700611
-0.0508561314710961
-0.0444192038948429
-0.0372198779963931
-0.0300191559333724
-0.0258710398659275
-0.0262985319567117
-0.0290156343708717
-0.0324953492760343
-0.0321596788422918
-0.0272456252421889
-0.0177541906507089
-0.00597337724525976
0.00428181279433919
0.0107233772858718
0.0133503140447384
0.0121626208839692
0.00944929561423914
0.00826233604388086
0.0101277399788990
0.0158085052229837
0.0237776295775247
0.0332731108416257
0.0427689468121168
0.0492141352835703
0.0541336740483134
0.0552385608964427
0.0548177936158375
0.0543973699921746
0.0570292878089418
0.0619495448474524
0.0714481388868581
0.0832370677041643
0.0950253290742436
0.105287920769850
0.110972840561632
0.112844086218149
0.113189655505883
0.113535546189254
0.115407756030634
0.121095282790359
0.130597124226748
0.140862278096113
0.151890742152773
0.159868514149073
0.164030591835391
0.165141972960159
0.163965655269873
0.162025636509107
0.162374914420532
0.165775486744925
0.171466351221185
0.178682505586349
0.185136947575604
0.189302674922302
0.188127685357974
0.183900976612347
0.175860546413354
0.167820392487152
0.160542512558134
0.156316904348945
0.155144565580494
0.153971493971972
0.152035687240865
0.145522143102965
0.133668859272390
0.118764833461596
0.101571063381388
0.0843775467409416
0.0694742812478112
0.0591472646079477
0.0526364945257122
0.0476509687038902
0.0441926848437066
0.0369186406448400
0.0258308338054374
0.0109282620221282
-0.00473607700996050
-0.0204011855971899
-0.0314880660473944
-0.0402857206698677
-0.0452691517753475
-0.0472003616760014
-0.0491313526854120
-0.0533501271185627
-0.0613846872918223
-0.0709440355229310
-0.0827921741309861
-0.0923511054364261
-0.101146831761017
-0.104602355427838
-0.106531678761265
-0.104645804086958
-0.101233733731846
-0.100110470024110
-0.101276015293173
-0.105493371869679
-0.111235542085485
-0.116978528273640
-0.120431332768375
-0.119306957905087
-0.115894406020321
-0.110954679451761
-0.106777780538210
-0.104890711619578
-0.107579475036868
-0.111795073132157
-0.116772508248587
-0.120987782730346
-0.121387898922652
-0.119498859171745
-0.114558665824864
-0.106565321230238
-0.0985728277370686
-0.0928681876955152
-0.0909784034566809
-0.0929034773725972
-0.0994064117962097
-0.105908209081362
-0.110121871582782
-0.109757401656067
-0.104051801657668
-0.0937690739448759
-0.0842492208758046
-0.0777802448093787
-0.0758891481053171
-0.0785759331241181
-0.0843136022270451
-0.0900521577761107
-0.0912126021340632
-0.0877949376643703
-0.0805631667312046
-0.0695162916994295
-0.0599943149345831
-0.0535252388028634
-0.0508700656711140
-0.0527927979068090
-0.0585294378780374
-0.0642669879534887
-0.0692404505024378
-0.0703998278947302
-0.0685071225007667
-0.0620373366914885
-0.0563294728383625
-0.0521485333133660
-0.0510185204889718
-0.0529394367381331
-0.0571502844342689
-0.0613610659512487
-0.0625197836633775
-0.0606264399453803
-0.0541550371723888
-0.0453955777199242
-0.0381610639638837
-0.0332164982805246
-0.0313228830464503
-0.0347702206385941
-0.0397425134342050
-0.0454787638108323
-0.0489249741463107
-0.0493201468187458
-0.0459012842064976
-0.0401923886881673
-0.0360094626425809
-0.0348785084487747
-0.0375625284859803
-0.0432985251336097
-0.0505595007712398
-0.0555324577785974
-0.0559273985355450
-0.0532703254220648
-0.0460352408182439
-0.0372751471042596
-0.0292780466603638
-0.0243319418668689
-0.0232008351041315
-0.0243587287525381
-0.0293306251924905
-0.0335405268043898
-0.0362244359686217
-0.0373823550655417
-0.0354882864754600
-0.0313052325786262
-0.0278851957552145
-0.0275171783853083
-0.0286751828488861
-0.0328852115258049
-0.0386202667957869
-0.0451193510384033
-0.0485664666330595
-0.0489606159589802
-0.0463048013951942
-0.0413590253205199
-0.0364132901135494
-0.0329945981526342
-0.0326269518158696
-0.0353103534810806
-0.0402838055258056
-0.0437313103272823
-0.0464148702624322
-0.0445224877078462
-0.0411031650397689
-0.0346319046340836
-0.0304507088662980
-0.0270315801115285
-0.0274275207444853
-0.0316375331394578
-0.0373746196702993
-0.0446367827104117
-0.0473220246327310
-0.0461923478097120
-0.0427737546133139
-0.0363042474149841
-0.0313598285856446
-0.0287045004956757
-0.0298642655149026
-0.0333131260125789
-0.0390500843573723
-0.0424991429173494
-0.0413703040599616
-0.0379525701520289
-0.0314839435597255
-0.0234894266485651
-0.0162570217833855
-0.0136027313283341
-0.0124745576468524
-0.0151615031016618
-0.0216635700547479
-0.0281647608673461
-0.0323780778999262
-0.0327765235121785
-0.0293601000629975
-0.0236548099104677
-0.0164246554118495
-0.0130086389235626
-0.0118817628011723
-0.0145700293993742
-0.0195464410719798
-0.0245240001719008
-0.0272127090511350
-0.0268495700607508
-0.0241975855508731
-0.0184937578706679
-0.0120280893683273
-0.00785058239105507
-0.00672523928505201
-0.00865206239550043
-0.0136310540665498
-0.0186092166413016
-0.0212995524617955
-0.0209380638689930
-0.0152357532027638
-0.00724562280187081
0.000744324996044987
0.00568308785447906
0.00680666343807823
0.00411504941265494
-0.000864756554797248
-0.00660875679608941
-0.0100639536418221
-0.0112293494213717
-0.00934494646287423
-0.00440774709321142
-0.000233753637995895
0.00317703157844313
0.00200960623307532
-0.00144703199581651
-0.00719288542862210
-0.0114119563843882
-0.0125802471808050
-0.00917076013419023
-0.00271049755947587
0.00680153822980761
0.0147883449215453
0.0189599202050525
0.0200792617710894
0.0166203673118757
0.0101092345211050
0.00512486109396019
0.000902244727126127
0.00202038311880643
0.00619027396873682
0.0126479149781995
0.0191063038500383
0.0217494382886729
0.0213403160001134
0.0163529346919746
0.00984029207349077
0.00561538585552988
0.00291621375060852
0.00250577347290556
0.00591006273827742
0.0116030792642721
0.0165318207701436
0.0191722849768663
0.0202864696071495
0.0175853723854521
0.0118329910379958
0.00760532329278100
0.00566636687960037
0.00830511953005325
0.0155215789775597
0.0250257429573756
0.0322406092066062
0.0371671754642210
0.0382784394710674
0.0355743989698855
0.0305820517053222
0.0248253954239456
0.0213574278742588
0.0217041468067146
0.0266285499737296
0.0338406351296981
0.0402904000310067
0.0459768424360484
0.0478469601052364
0.0466667508010185
0.0431962122878916
0.0404883423324152
0.0400691387032261
0.0427015991710517
0.0499107215087250
0.0594095034911981
0.0696699428955567
0.0761150375010331
0.0795087850890219
0.0798501834430927
0.0779022303490044
0.0759549235947195
0.0762952609704181
0.0796862402685113
0.0876558592836555
0.0994391158127666
0.109696007655034
0.116900532611933
0.120290688487241
0.118339473087049
0.114862884219779
0.109858919696193
0.106380577329411
0.104428854934923
0.104764750330602
0.105100261336720
0.103909385775960
0.0981401214734298
0.0893194662566780
0.0766834179557043
0.0640469744029757
0.0514101334334394
0.0425878928845363
0.0383422505962148
0.0379112044109449
0.0412947521737309
0.0446778917321262
0.0457716209362457
0.0430499376387802
0.0380388396950100
0.0307393249628176
0.0249643913027022
0.0222420365777927
0.0225702586538618
0.0274750553993379
0.0346694246853209
0.0403363643855937
0.0429518723766369
0.0394629465376411
0.0344485847505214
0.0271437848999302
0.0213655448732706
0.0216898625607096
0.0281167358551919
0.0421731626524530
0.0623331408510321
0.0878326683522861
0.119434743060402
0.160955362882412
0.210867525728203
0.266883229510535
0.326712472145049
0.385778251550283
0.441792565647687
0.487124412361631
0.522538789619423
0.541929695351320
0.544536127490540
0.527305083973277
0.490237562738713
0.437147561729032
0.371851078889432
0.304264112168139
0.238965659516418
0.181296718888587
0.130493288242033
0.0903703655372183
0.0563509487376999
0.0276710358101384
0.00433162472431261
-0.0144302865468686
-0.0293787000273525
-0.0366986177379308
-0.0356260416962259
-0.0269239739166787
-0.0128824164105360
0.00115762881416294
0.0144351597525984
0.0231351744031831
0.0280186707675748
0.0313766468506890
0.0324451006607115
0.0335130302091112
0.0368694335106521
0.0425133085834065
0.0489206534487674
0.0545634661314605
0.0586807446595570
0.0597454870644865
0.0585206913810487
0.0557693556474261
0.0530184779051967
0.0533180561993460
0.0566680885782796
0.0630705730938352
0.0702345078012952
0.0781618907593990
0.0822727200303554
0.0833319936798539
0.0813397097770783
0.0785828663947181
0.0742994616089809
0.0730674934996043
0.0741239601498683
0.0797578596466075
0.0892051900802227
0.0986519495446937
0.106573136137591
0.109915747960086
0.108679783116969
0.105154239716651
0.0993391158711878
0.0958134096962811
0.0945751193112969
0.0979142428392754
0.104303778406943
0.112219724144724
0.118608078186753
0.121944838670884
0.122229003738709
0.118697571535560
0.115928540210529
0.113922907916476
0.113441672810040
0.118299833051655
0.124684386805554
0.133356332239788
0.139739667526236
0.145358390840611
0.146399500362480
0.145150994275268
0.143138870766276
0.142652128026686
0.145216764251577
0.147780777639936
0.154159166394667
0.160535928722605
0.164624062834524
0.165659566945154
0.165168439273185
0.163913678041284
0.162658281476104
0.164454247808295
0.170064575272516
0.179488262107446
0.188911306555793
0.198333706864309
0.204704461283800
0.208022568069132
0.209051025479251
0.207789831777185
0.206527985230063
0.207554484109119
0.213920326689707
0.221812511251311
0.232755036077556
0.242933899456219
0.250823099679238
0.254897635042725
0.255919503846978
0.254651704396486
0.254909234999946
0.257455093970270
0.263052279624599
0.272462790284308
0.284161624275023
0.295859779926627
0.303742255573273
0.308573049553393
0.308825160209711
0.306787585889249
0.303986324943343
0.304236375727648
0.308300736602152
0.314653405931187
0.322530382083435
0.331169663431942
0.337520248354127
0.339292135231795
0.337248322451141
0.332151808402766
0.326292591481684
0.321957670087335
0.321437042623593
0.323967707498774
0.328023663125652
0.332078907921463
0.331555440307919
0.325690258711216
0.316010361562044
0.302514747295598
0.289018414351588
0.277810361174247
0.269653586212342
0.263784087919185
0.259439864752640
0.255095915175135
0.246173237653672
0.234197830659833
0.218406692669797
0.201088822164339
0.183008217628852
0.168740877553344
0.157524800432459
0.150884984765478
0.148060429056333
0.146760131813615
0.143933091550584
0.138816306785176
0.128358776040017
0.116374497842429
0.103626470724439
0.0931666932227910
0.0865211638789514
0.0821628812391220
0.0823818438542470
0.0826000502800230
0.0812914990769075
0.0769301888101286
0.0710431180496937
0.0628662853703987
0.0554506893518370
0.0510873285784084
0.0497742016393280
0.0507493071286354
0.0540116436452034
0.0572742097927465
0.0574840041798306
0.0561670254198808
0.0510352721311910
0.0459017429369319
0.0415304364651606
0.0394483513488283
0.0411784862257894
0.0451978397388105
0.0522684105355780
0.0601001972687078
0.0641171985957527
0.0643184131792119
0.0614668396865388
0.0563254767901494
0.0527103231674311
0.0521453775007511
0.0553946384774640
0.0624571047899209
0.0718077751354771
0.0803956482165008
0.0874557227403812
0.0899379974195363
0.0886044709714213
0.0834551421185368
0.0775430095884369
0.0731550721137369
0.0725813284321216
0.0750587772863532
0.0813504174242795
0.0884032475988411
0.0946932665680802
0.0979294730951479
0.0973508659483119
0.0944834439009649
0.0893252057316316
0.0856921502239772
0.0858732761668141
0.0891055823541106
0.0946260675849981
0.0993817306637784
0.102611570399931
0.102788585608123
0.0991497751082131
0.0932221377252603
0.0872926722895330
0.0844153776365145
0.0853512526069113
0.0901002960466595
0.0963755068069334
0.102648883744152
0.106633425719985
0.106802131601363
0.103155000260483
0.0979820305748138
0.0928072214271060
0.0906835717053975
0.0908480803030211
0.0940637461186112
0.0980415680561106
0.102017545024778
0.104467675939194
0.104627959719269
0.100973395290251
0.0942649815827266
0.0883197175326368
0.0846616020812766
0.0825286341753048
0.0849728127667497
0.0881791368130162
0.0913836052768923
0.0922992171265552
0.0909249713355785
0.0849728668829383
0.0774939027530196
0.0707760779356230
0.0678723914259709
0.0680198422247140
0.0750334293379372
0.0820451517771664
0.0913460085593746
0.0968299987069881
0.0977361212478922
0.0948263752154384
0.0888647596484495
0.0829012735912261
0.0792269160935529
0.0801276862107040
0.0833175830034498
0.0895586055380620
0.0942717528863201
0.0997480241255172
0.0998824183384656
0.0984899346135029
0.0948075720444975
0.0888363297308544
0.0836262067775212
0.0807052022949931
0.0808343153993192
0.0832505452121078
0.0864298908605320
0.0873193514773348
0.0874449262008354
0.0845176141749342
0.0815904145491179
0.0778983264784656
0.0757313491236535
0.0750894816509605
0.0774987232322735
0.0821960730450926
0.0884175302725361
0.0938760941033461
0.0955187637318930
0.0933455383581814
0.0881194171878544
0.0821303994321992
0.0791914843081515
0.0808296710383010
0.0855179588508963
0.0924953469798491
0.0971818346647400
0.100342421150822
0.0981611056890284
0.0936908875359719
0.0861667659539551
0.0801687402109719
0.0764578095807130
0.0765609733425706
0.0804782307816424
0.0882085811887371
0.0951760238603779
0.0990895580988074
0.0999511832119922
0.0954718985136268
0.0879387033231383
0.0804055969656905
0.0751595787721886
0.0729656480792826
0.0745838042293724
0.0784910465706112
0.0831603744569104
0.0870647872479431
0.0886802843091480
0.0880058650117341
0.0835165287326843
0.0797882748547592
0.0783481027665011
0.0799590118622382
0.0853840015420879
0.0938590712119609
0.101570220283565
0.105466448174409
0.105546754307805
0.102574138112875
0.0957865990245510
0.0867091364835810
0.0799187499365318
0.0746544388357924
0.0762542026395774
0.0816690408119310
0.0878449528227296
0.0932579381476856
0.0956179962683509
0.0933991266721197
0.0881273288522320
0.0813296023077769
0.0775819465436955
0.0761223610707844
0.0784768454056983
0.0838823990709537
0.0900490215949313
0.0931637125118793
0.0932254713619163
0.0894712976910344
0.0819021910511017
0.0750951509998653
0.0705751771009543
0.0706322689238821
0.0745034260440498
0.0814246480427481
0.0883459345071607
0.0929762850303664
0.0945546992113417
0.0930801766549638
0.0877907169720126
0.0847883197791733
0.0840739846990390
0.0848847113601129
0.0895084993968107
0.0964213484494631
0.103332258164318
0.107954228193541
0.108760258195223
0.105750347833375
0.0989254967779347
0.0928617047047691
0.0898489712956741
0.0914132962383778
0.0983176792265422
0.108272119959766
0.118225618143584
0.125127173489472
0.128211785714848
0.126719454543072
0.122936179703449
0.118388960931232
0.116892797967621
0.117684690559768
0.123053638460775
0.130709641429699
0.139128699231548
0.146019811637292
0.149858978423854
0.149882199374119
0.146852474276931
0.144584802927096
0.144605185125384
0.148439620678529
0.155324109399231
0.165260651106156
0.175195245623939
0.182076892783184
0.184380592420465
0.182105344378326
0.176778148505286
0.169160004655835
0.163067912690437
0.159262872475534
0.158508883883540
0.157753946792848
0.156998061087828
0.153190226658828
0.147091443402175
0.137940711220175
0.127263030021116
0.115058399719265
0.105903820234870
0.100564291494163
0.0998008134293569
0.102088385978647
0.105900009086212
0.107422682702214
0.105892406782800
0.100547181290100
0.0906220061922285
0.0814598814632849
0.0753488070833529
0.0738137830385014
0.0768558093207841
0.0821848859282396
0.0882770128648918
0.0920781901407494
0.0905384177718060
0.0851836957800402
0.0767760241934153
0.0698924030458792
0.0668228323773639
0.0713823122337858
0.0843328426670450
0.103385423735025
0.130067055501592
0.162088738036597
0.202501471415870
0.252068255721226
0.308500091040458
0.368745977467344
0.428228915101638
0.482368904049076
0.526590944421373
0.558604036336221
0.579936179917289
0.585244375294226
0.573004622602652
0.542453921984166
0.495116273586339
0.436334677562717
0.370685134072816
0.305034643282125
0.245487205362103
0.193567820490177
0.151566488849743
0.114903210630164
0.0858699860267672
0.0606498152408466
0.0400056984796578
0.0239396359564185
0.0177896278903072
0.0192686745064613
0.0283757760359762
0.0420599327159034
0.0565061447892494
0.0678994125049736
0.0739517361179877
0.0769501158891530
0.0738455520852794
0.0707390449791237
0.0706835948493876
0.0729162019807163
0.0781988666636964
0.0842445891948543
0.0902883698766539
0.0940432090174955
0.0939821069317131
0.0901050639395727
0.0839390803672704
0.0800601565469302
0.0777062928166019
0.0791664895202590
0.0836777470077965
0.0912390656350289
0.0988004457636878
0.104070887761419
0.107815392001783
0.107743958864247
0.104619588734188
0.100731282002889
0.0998950390675339
0.102870860331209
0.108135746202897
0.114924697097476
0.122476713435718
0.125448795644284
0.125368944155721
0.122237159408463
0.116051441846825
0.109102791921000
0.105967210087058
0.106645696806942
0.110375252548467
0.116391877785312
0.123934572997024
0.129949338669009
0.132149175292533
0.131296083364717
0.128916063388532
0.125772115872801
0.124153241332191
0.126348440287212
0.130068713264213
0.137602060795380
0.145135483418730
0.151140981678109
0.152568556123191
0.150943207309470
0.147028935798261
0.142349742156691
0.139958626957701
0.141381590780041
0.146618634208262
0.154142757832719
0.163191962249563
0.169189248060737
0.172895615873974
0.172787066302794
0.171152599966497
0.168753217490162
0.169404919504641
0.173106706646557
0.179860579558297
0.191953538888013
0.203282585289611
0.213847719422753
0.220597941952850
0.222768253551058
0.221124654894275
0.219479146665134
0.220121729552002
0.223051404248974
0.228270171455868
0.236539031878221
0.246332986227287
0.253075035220027
0.256764179579112
0.258162420032911
0.254983757315491
0.254092192166611
0.253962725331718
0.259172357561940
0.268197089614085
0.278745922250634
0.291582856239734
0.301366892355199
0.308098031376498
0.310251274088758
0.307825621282751
0.303874073754896
0.302209632307247
0.303596297747495
0.308033070888959
0.314758952550581
0.321482943556921
0.324392044738152
0.325011256930057
0.321814580974018
0.317092017717018
0.310841568011631
0.306116232716015
0.304443012693912
0.305055908814640
0.307194921953084
0.307807052989698
0.306129302810493
0.300636672307032
0.290565162376429
0.277440773921339
0.261263507849952
0.248900365075993
0.238825346518707
0.232563453102863
0.227826685758740
0.223853045422126
0.217588533034312
0.208272149542082
0.195902895897711
0.180480773058960
0.164294781989064
0.149634923656732
0.138025199036138
0.130228609106915
0.127009154854151
0.125314837268378
0.121331657345571
0.113531616087138
0.101916714499918
0.0872489535961678
0.0733443343935630
0.0624888579151860
0.0554485251895230
0.0522213372504556
0.0520452951372551
0.0533943998945760
0.0539796525724488
0.0507490542262738
0.0444666059168149
0.0366563087101916
0.0273201636778736
0.0202721718966736
0.0178003344487397
0.0183796524215503
0.0220091269079052
0.0256387590059205
0.0269785498190206
0.0267915004559312
0.0220256120306733
0.0172598856625553
0.0109663224761656
0.00848692360136661
0.00905869017328708
0.0126816233323144
0.0178297242240885
0.0229759939994936
0.0265964338146516
0.0279270448309146
0.0254418282148573
0.0214297851382700
0.0166549167781514
0.0134042243167002
0.0124417089413088
0.0152933718445551
0.0204322142241952
0.0263342372831559
0.0314714422295266
0.0343198302765528
0.0348784026426275
0.0316211605512831
0.0283641052311852
0.0273942379161237
0.0287115598450048
0.0323180722618444
0.0382127764157590
0.0448686735609586
0.0499987649567385
0.0528380518674711
0.0518635355625986
0.0478352173166243
0.0430430984091048
0.0405391801246422
0.0410864637528755
0.0446849505884728
0.0513336419311232
0.0579825390855282
0.0631036433613939
0.0651729560734224
0.0626634785413035
0.0571022120897069
0.0492511580482733
0.0444503177516058
0.0434636925392625
0.0447652837557466
0.0498800927504993
0.0557581208778906
0.0601093694972104
0.0621698399726608
0.0596535336733472
0.0548464519732686
0.0485125962513108
0.0437049678912364
0.0419475682816759
0.0447673988161204
0.0506374608929108
0.0565077559152306
0.0616132852910966
0.0621410504333492
0.0596160527596447
0.0540392936924458
0.0461717746590120
0.0421194970913920
0.0395914624264132
0.0416406721056737
0.0459771275755330
0.0510768302871019
0.0546497816962348
0.0551699832635198
0.0518744364542688
0.0462891427385099
0.0391781035909764
0.0335913204910989
0.0318187949229949
0.0330975283754599
0.0366645223419581
0.0409937783206130
0.0437952978141971
0.0420190823301238
0.0387171333804371
0.0331244524818016
0.0267690411554940
0.0234639009273930
0.0239730333279691
0.0275324398922761
0.0341441221599400
0.0407540816751509
0.0466013199866520
0.0486328386477300
0.0460856392162061
0.0404857232544251
0.0333600923292463
0.0277587480120334
0.0252086918786444
0.0272359255094216
0.0315514504891822
0.0389172684072074
0.0455203808572335
0.0475447894374408
0.0449904957504437
0.0393835014032813
0.0307248080074068
0.0243534171786767
0.0217963305373417
0.0230535497080356
0.0265990763197658
0.0309069120059025
0.0336870584041681
0.0334155171566276
0.0293292899096785
0.0229523783140387
0.0142867840247379
0.00867150870110636
0.00610855400676419
0.00812092160961172
0.0147116131818178
0.0228266303998103
0.0294159749442652
0.0321886485000953
0.0303836527564407
0.0247639894066576
0.0176166601483070
0.0112326666831455
0.00866201071711273
0.00837969396032212
0.0119117181270496
0.0169680849357216
0.0197357961089068
0.0209768533733029
0.0191652584597262
0.0158270131031016
0.0124891190424512
0.0106755780208824
0.0119133917855785
0.0154385620877862
0.0220160906828057
0.0278289793299792
0.0313532297926789
0.0325878438382975
0.0292438232382362
0.0236111697678929
0.0187398852066521
0.0138679713378735
0.0112844299488795
0.0117522628309460
0.0137454717792887
0.0180270585930544
0.0207820250753075
0.0204843730330190
0.0178971042770562
0.0130202206221705
0.00814272388698534
0.00402861589398617
0.00449089846950732
0.00876657344372194
0.0153316426506298
0.0234211079280451
0.0284589711175861
0.0273922340646627
0.0232728986184647
0.0161019666319506
0.00969243996183605
0.00480832046858092
0.00373961001637910
0.00648331047314583
0.0122794237105061
0.0180739516037831
0.0223428960319855
0.0243222588777968
0.0232490420275629
0.0183602473712794
0.0119458768025813
0.00629293221872998
0.00292841552060086
0.00414132861267279
0.00840567340301429
0.0149574518032731
0.0199836657286634
0.0219573170979531
0.0216414078334529
0.0175099398610038
0.0118519151099638
0.00772033551319800
0.00740220300706437
0.00860951953140189
0.0136302870295194
0.0194145074481818
0.0229081827375992
0.0233503148514138
0.0207409057466873
0.0166039573838894
0.0109404717268850
0.00832845074292119
0.00800489640261628
0.00996981067994553
0.0149861955522304
0.0207640530001253
0.0265423850076044
0.0269791935619505
0.0243634806537419
0.0179322482768386
0.0115014984283724
0.00659523310873190
0.00626645432155043
0.00746316407369443
0.0132373643752492
0.0190100572395076
0.0224942446829569
0.0252149287252652
0.0225941113892702
0.0192097947009653
0.0135369806894868
0.0101516713871023
0.00981786882919584
0.0132975750542572
0.0190667921038678
0.0248355220226876
0.0298397668584432
0.0333185286619141
0.0352708094869201
0.0326446113903082
0.0284919364319399
0.0251017866746772
0.0240001641843713
0.0267130710298479
0.0340035092828951
0.0443444810182503
0.0531589883135861
0.0581590332494988
0.0593426179094940
0.0574757443799736
0.0540814147502234
0.0537386311123991
0.0564473955615132
0.0629697101954225
0.0725435771148135
0.0828799984231904
0.0909279762268620
0.0943965126349265
0.0955766097592604
0.0937042697145040
0.0925944946180476
0.0922472865900201
0.0934256477532730
0.0984185802333690
0.104173086158568
0.109928167659813
0.112630826870718
0.109992065927554
0.101249886969232
0.0879292921372977
0.0746082835759098
0.0612868634318302
0.0525420338544107
0.0483757969955774
0.0464971550098200
0.0453811100541757
0.0412126642882159
0.0332298198740341
0.0229565789762310
0.0119209437619007
0.00164791640061776
-0.00481050093557650
-0.00669230607218893
-0.00399749683228639
-0.000539071036511456
0.00520797349690549
0.00713963895213182
0.00830692751571803
0.00566084137658552
-3.86172739880140e-05
-0.00573844624238320
-0.0122006433326510
-0.0163752063465289
-0.0174981330834521
-0.0155694213405693
-0.0136410689127570
-0.0117130735926315
-0.0113114331705641
-0.00938514543469540
-0.00669520817094807
0.00209838083695857
0.0192826238074938
0.0532515229613032
0.102479080521193
0.168491298712116
0.244421179761160
0.321876725897531
0.390176939352541
0.443979822359590
0.480235377154158
0.500469605973787
0.510021511058068
0.507366094648625
0.493266358989104
0.465433306325157
0.425392938904426
0.373146258976534
0.310217268793065
0.242709970607554
0.172913366675470
0.107695459254205
0.0539202506030554
0.0123517429832108
-0.0162470613422607
-0.0334011601084270
-0.0421645510485073
-0.0440612318938847
-0.0444322003741215
-0.0448034542169743
-0.0459379911484058
-0.0463098088926018
-0.0443929051719850
-0.0401872777072279
-0.0329309242172693
-0.0226228424193267
-0.0123140300289120
-0.00582148475984594
-0.00238020432427171
-0.00504318643266972
-0.0130464287938730
-0.0225769291150800
-0.0305806851018700
-0.0347706944582184
-0.0359089548865089
-0.0309434640875510
-0.0259792197605918
-0.0217772196033321
-0.0191014613119404
-0.0194779425810676
-0.0229066611038614
-0.0263356145719815
-0.0290018006756129
-0.0286162171034820
-0.0244158615428698
-0.0194527316796272
-0.0129648251981900
-0.00876513978159277
-0.00685467311148332
-0.00723342286813878
-0.0114273867304784
-0.0156215623760792
-0.0190529474811910
-0.0209575397207497
-0.0190493367683940
-0.0117993362964779
-0.00378753597608672
0.00346106652294834
0.00689547353203574
0.00651468738380910
0.00308171041211126
-0.00111345504801866
-0.00378380666036099
-0.00263934208753088
0.00231894100900866
0.0118560449689299
0.0213919721330277
0.0286387248432034
0.0328343054424499
0.0324517162748379
0.0267279596855008
0.0194790380206186
0.0129919536274052
0.0118457088540916
0.0122253060499125
0.0194717475650915
0.0274800357508245
0.0362511729592667
0.0404451615435175
0.0415870038576041
0.0389137022564690
0.0347142590959535
0.0328036767327829
0.0347079575245525
0.0419531038297117
0.0499601180075500
0.0587300024181818
0.0652117594225307
0.0678773913823160
0.0652039006600371
0.0625292896189578
0.0590915606230929
0.0579427160371924
0.0606087582267265
0.0663256895578713
0.0758585123974924
0.0876792291131320
0.0972108420729928
0.102927353645922
0.106355766201400
0.105206082109521
0.104819303740979
0.105958433467057
0.110149473659607
0.117391426691035
0.126922294934293
0.136453080762854
0.145221786550703
0.150937414672324
0.152838967502678
0.151688447417194
0.150537856791753
0.151676198002668
0.156629473426678
0.165396685440925
0.177215836422941
0.189797928750637
0.198564964802283
0.202754946956495
0.201603877592220
0.196637759088722
0.190909593825564
0.185943384182596
0.184792132539938
0.185929841277967
0.190881512777300
0.198123149418780
0.203837753583460
0.206501327652589
0.206112874007596
0.201147395030079
0.192365893101781
0.183585370604585
0.177092829920493
0.172127273431611
0.169449703520138
0.167535122568346
0.163331532958569
0.153787937073185
0.142718337294604
0.127070736005249
0.110660135587544
0.0942505384238999
0.0808919468966949
0.0705843633882633
0.0625667902808797
0.0553122299567439
0.0480566847979641
0.0369871571865453
0.0236286495043715
0.00874416413319069
-0.00537729654539825
-0.0179727301499619
-0.0252271342992480
-0.0301935066121985
-0.0313448447079669
-0.0332591462059311
-0.0366984087257097
-0.0439536298871775
-0.0534968073104789
-0.0653289386160441
-0.0786870214246043
-0.0897560533572054
-0.0970110320352251
-0.0989249550803856
-0.0977868201147700
-0.0951226247608379
-0.0939843666414383
-0.0966610433798261
-0.104677652599678
-0.114221191925105
-0.123763658980669
-0.131017051391399
-0.132930366782803
-0.130266602780885
-0.123786757012161
-0.116544827103669
-0.110064810682992
-0.108925705378267
-0.110075508818200
-0.115040218632085
-0.120766832449814
-0.126494347901896
-0.129932762619471
-0.129556074234323
-0.125364280378897
-0.121173378686313
-0.116981366790382
-0.115841242325618
-0.118516002927259
-0.122716646231273
-0.128442169874383
-0.131116571494073
-0.130738848728609
-0.127308999217050
-0.120065020599267
-0.113583910515953
-0.107101666608643
-0.103671286519722
-0.103292767892450
-0.105203108370966
-0.107876305600311
-0.109786357226438
-0.110933260896230
-0.109028014257513
-0.103308614959070
-0.0968250606506602
-0.0918683489830282
-0.0891994776079227
-0.0911084441781095
-0.0960682463473877
-0.102554881770603
-0.106752348103664
-0.107134643003555
-0.102938764128353
-0.0964537091372417
-0.0892064756905259
-0.0834850614496457
-0.0800514640771932
-0.0811956812369254
-0.0846287105937796
-0.0903495498138885
-0.0945451965645942
-0.0979776485144642
-0.0991209033333044
-0.0956859586921748
-0.0907248122634046
-0.0872904617206060
-0.0853809047386890
-0.0872861389938771
-0.0922421621637206
-0.0979619719271117
-0.102917565964300
-0.104821941956907
-0.102912097587938
-0.0971860305418005
-0.0906977385043176
-0.0880232191627419
-0.0876374702057700
-0.0918294893235579
-0.0990722742077354
-0.107077822551420
-0.112795132049233
-0.116223200397312
-0.116599025293326
-0.113922604436493
-0.110482935527590
-0.106281016268969
-0.103603844364573
-0.103978417519948
-0.108167733442262
-0.113118789840314
-0.117307584424551
-0.119207114907083
-0.118817379001697
-0.115375374423870
-0.109645098890786
-0.104676550121349
-0.102759725836196
-0.103131623757714
-0.107318241610053
-0.113030577119141
-0.117978628012698
-0.120638392020250
-0.118719866873142
-0.115275050304558
-0.111067940049526
-0.107622533844943
-0.106465829429580
-0.109886824544101
-0.115596516931077
-0.122067904335000
-0.126250984502296
-0.126618755181341
-0.123934214122472
-0.118198359078008
-0.110935187802255
-0.107486698051527
-0.107852887584159
-0.112796754160518
-0.120029295543022
-0.126497509496150
-0.132203393786456
-0.133330946182588
-0.130643164455297
-0.125666046377452
-0.121452589724057
-0.119526792272262
-0.118363651801378
-0.121778166092890
-0.125954332930474
-0.130894150100007
-0.134307615389585
-0.135431726589533
-0.134266481492423
-0.130048877893085
-0.125831913588620
-0.122376586378418
-0.122735894064169
-0.125383834449877
-0.130319405341875
-0.136018604548837
-0.140191429881794
-0.142073879154147
-0.139379950181679
-0.135158640782573
-0.128648948777421
-0.122900871989240
-0.121730408243488
-0.124374555368073
-0.129307311193370
-0.135764673552234
-0.141459640280013
-0.143339209214562
-0.142166378196258
-0.137941145068012
-0.132953507675282
-0.128727463866089
-0.126027011491029
-0.127141148403286
-0.131306872458647
-0.135471181515516
-0.138110073434924
-0.139222546080547
-0.138045597318717
-0.134580225018436
-0.129587427051387
-0.125357201291954
-0.123416545617228
-0.123000457907025
-0.128686936043898
-0.135899977913150
-0.143111581402846
-0.146508744403832
-0.145327464809741
-0.141856740517011
-0.136860569424897
-0.134151949435484
-0.132968878453700
-0.135600354387331
-0.141283375147032
-0.148490938646340
-0.154173042801689
-0.154513685532425
-0.151038864760812
-0.145274578412053
-0.137221824414299
-0.129931600698662
-0.127217905199229
-0.129844735853076
-0.137048090600279
-0.145776967383928
-0.151454364150141
-0.153316278848075
-0.150599709429939
-0.144068653851010
-0.136010110069641
-0.129478076047280
-0.125996549748476
-0.126329529140898
-0.131240012195343
-0.139200996885752
-0.146399481189222
-0.151307463086018
-0.153163940559586
-0.150441911596567
-0.143905374186808
-0.137368326323376
-0.133881766002568
-0.133446691223928
-0.136826099990257
-0.141729990307626
-0.144345360185386
-0.146197207636187
-0.144233530675984
-0.139218327324053
-0.134964595603004
-0.131473333538788
-0.131033539160719
-0.134408210501477
-0.140071345597126
-0.148021942487125
-0.154446999214341
-0.157055513825058
-0.155850484368995
-0.151591908899314
-0.144280785472632
-0.137733112149037
-0.134998886992097
-0.134553108068873
-0.138684773449933
-0.142052881209362
-0.144657429424774
-0.144209416177324
-0.141471839551725
-0.137207697636252
-0.132180988522761
-0.127915710306696
-0.126701861087106
-0.130065438966651
-0.134954442051620
-0.142893868451939
-0.147781716281185
-0.148853983656596
-0.144584668699084
-0.135737769533248
-0.124601284287384
-0.114989211093497
-0.107666548087314
-0.106446293408294
-0.109040445199642
-0.113160001608319
-0.114988960785053
-0.114530320884355
-0.108729080064524
-0.101402236487664
-0.0917847883196927
-0.0836937337303563
-0.0786530708932366
-0.0774277979857654
-0.0800149131892361
-0.0848914146888137
-0.0905303006735473
-0.0915905693363814
-0.0888352188741668
-0.0822642474876732
-0.0734046533815989
-0.0668334347645830
-0.0633125898492173
-0.0628431168520564
-0.0661880139936295
-0.0733462794984521
-0.0797419115950360
-0.0853729085159023
-0.0902412684975904
-0.0928199897806706
-0.0953980706097552
-0.0987375092335087
-0.103603303904659
-0.111519452880011
-0.122487954420452
-0.135742806790969
-0.148998008260655
-0.157675557102721
-0.164062451594511
-0.165108690017505
-0.162339270657338
-0.159570191803805
-0.156799451750873
-0.157843048796696
-0.162700981243620
-0.168320247398196
-0.173176845571192
-0.173454774077601
-0.172969031236653
-0.168667615371829
-0.163603524810865
-0.160826757885766
-0.161101312932818
-0.165190188292595
-0.172329382309974
-0.180230893334139
-0.184317719718599
-0.182299859821192
-0.171889312004100
-0.152323074633855
-0.122074146081354
-0.0811435247218657
-0.0302942089350414
0.0289478028950730
0.0927685123800287
0.156589921126963
0.215834030738589
0.268212842813187
0.309910358944591
0.340928580722183
0.359739509730879
0.362530147551122
0.344722495758871
0.308603555925590
0.255702329618239
0.191356818399264
0.120908023826589
0.0512239474536012
-0.0115934091708527
-0.0644920445024810
-0.107471957001554
-0.141295145132916
-0.168251607365992
-0.189103342174799
-0.206903348037958
-0.219361623438699
-0.225715166864874
-0.223676976808964
-0.217059051768092
-0.205100390244029
-0.191614990743204
-0.180417851776716
-0.173797971860342
-0.173280349514543
-0.177338983264480
-0.184449871640017
-0.189271013175735
-0.189513406410938
-0.187466049889663
-0.180839942160691
-0.173451081777553
-0.167586467298544
-0.164774097286725
-0.165774970309938
-0.169063084940815
-0.173114439756781
-0.177165033340071
-0.177399864277733
-0.174581931161639
-0.167948232588494
-0.159788767159846
-0.152391533482091
-0.148807530166487
-0.149037755829158
-0.153845209091106
-0.160176888578218
-0.166508792921276
-0.168261920755963
-0.166962270722877
-0.162609841467531
-0.156731631640372
-0.150851639896779
-0.146496864897080
-0.145194305306557
-0.146940959795452
-0.150976827038980
-0.152722905717335
-0.152179194515697
-0.148582692124244
-0.141934397238156
-0.135284308557628
-0.129397424787872
-0.126560744639132
-0.126775266826687
-0.130803990070862
-0.135593913097034
-0.139621034635642
-0.141358353422193
-0.137753868197272
-0.130334577706550
-0.122151480700787
-0.113966575935850
-0.109596862172708
-0.109803338177452
-0.114586002721294
-0.120894854580579
-0.125675892536791
-0.126642115376564
-0.122267521891685
-0.114076110879102
-0.102832881140937
-0.0908258314844887
-0.0818699607222395
-0.0782532676718664