-0.12577121
-0.111251538
-0.133537546
-0.189252566
-0.191278567
-0.158524888
-0.133199879
-0.121381542
-0.103485202
-0.082887527
-0.077484859
-0.087277196
-0.100783867
-0.088627863
-0.090316197
-0.115641206
-0.149070218
-0.200733237
-0.252396256
-0.222343912
-0.147044218
-0.105173536
-0.079173193
-0.08896553
-0.109225537
-0.098082533
-0.088290196
-0.126446543
-0.186888899
-0.166291225
-0.133199879
-0.100783867
-0.06161452
-0.059588519
-0.078160192
-0.096731866
-0.110238537
-0.121719208
-0.110238537
-0.087614862
-0.082887527
-0.094368198
-0.114290539
-0.110238537
-0.109563204
-0.094705865
-0.066341855
-0.052159849
-0.064991188
-0.071744523
-0.075796525
-0.084238195
-0.039666178
0.026854179
0.058257191
0.068724862
0.039347851
0.00895784
-0.0089385
-0.023795839
-0.019068504
-0.027510174
-0.028185507
-0.027847841
-0.013328169
0.01841251
0.037659517
0.047114187
0.028542513
0.046101187
0.057244191
0.04677652
0.031581515
0.01841251
0.003217504
-0.03527651
-0.052159849
-0.031224508
0.005581172
0.028542513
0.008620173
-0.025484173
-0.033925843
-0.022107505
0.008620173
0.013685175
-0.003198165
-0.024133506
-0.038653178
-0.04473118
-0.06262752
-0.030549175
0.014022841
0.015373509
0.003217504
-0.012315168
-0.047432514
-0.108212537
-0.142316883
-0.119017874
-0.051822183
0.002879837
0.034620516
0.042724519
0.024490512
0.024152845
0.062309192
0.095062871
0.094049871
0.072101529
0.076828864
0.095062871
0.123764548
0.223713918
0.283143273
0.271324936
0.215272249
0.157193561
0.127141216
0.148076557
0.181843236
0.167323564
0.120725547
0.117686546
0.149427224
0.168674231
0.166310564
0.150777892
0.127478883
0.101140873
0.095062871
0.086958868
0.078179532
0.096751205
0.134232219
0.153816893
0.172050899
0.178466568
0.202778577
0.221012584
0.212908581
0.185895238
0.099114873
-0.018730837
-0.141641549
-0.28886427
-0.471542003
-0.66333674
-0.847027474
-1.0084322
-1.194486602
-1.29983864
-1.283292967
-1.156667921
-0.820351798
-0.428658321
-0.094368198
0.21932425
0.450963668
0.560705375
0.615745062
0.630602401
0.588056385
0.510393023
0.443872666
0.414495655
0.391196646
0.380728976
0.366209304
0.342910295
0.312857951
0.264233933
0.265246934
0.289221276
0.298675946
0.306104615
0.32028662
0.321637288
0.320961954
0.299013613
0.286857608
0.282130273
0.254103929
0.196362908
0.146050557
0.129842551
0.144699889
0.178466568
0.172388566
0.163946896
0.161245562
0.133894552
0.101140873
0.108231876
0.111946211
0.101140873
0.091348536
0.067036528
0.049815521
0.052179189
0.055555857
0.035971183
0.007607172
0.015035842
0.03732185
0.04778952
0.036646516
0.062646859
0.057244191
0.00051617
-0.041692179
-0.049796182
-0.059588519
-0.059588519
-0.027847841
-0.027172507
-0.037977844
-0.015354169
-0.005561832
-0.024471173
-0.034938843
-0.040679179
-0.049458515
-0.062289853
-0.082549861
-0.101459201
-0.125433543
-0.105511202
-0.128472544
-0.172706894
-0.157174221
-0.112264538
-0.062289853
-0.032237509
-0.076809525
-0.132862212
-0.170343226
-0.239902585
-0.265902928
-0.220655578
-0.188239566
-0.169667893
-0.166966558
-0.178109562
-0.195668235
-0.211876241
-0.191953901
-0.154472887
-0.141979216
-0.156836555
-0.184862898
-0.175070561
-0.126446543
-0.089640863
-0.059588519
-0.046419514
-0.06262752
-0.093017531
-0.069718523
-0.01636717
0.068387195
0.119037213
0.080543199
0.022464511
0.036984183
0.089660203
0.12038788
0.147401224
0.185219904
0.185219904
0.143686889
0.097764205
0.087634202
0.115660545
0.188258905
0.238908924
0.260181932
0.248025927
0.207505912
0.164959897
0.176102901
0.1740769
0.128154217
0.080205532
0.056906524
0.047114187
0.081893866
0.117686546
0.119712547
0.096075872
0.058594858
0.02043851
0.028542513
0.032256848
0.035295849
0.059945525
0.072776863
0.075140531
0.064335193
0.025165846
-0.01839317
-0.040679179
-0.070731523
-0.063978187
-0.026497173
0.024490512
0.070750862
0.035295849
0.004568171
0.005243505
-0.004886499
-0.015016503
-0.023795839
-0.022782839
-0.008263167
-0.014678836
-0.032912842
-0.058575518
-0.078160192
-0.071406857
-0.043042846
-0.052835183
-0.101796868
-0.126446543
-0.090316197
-0.070731523
-0.075121191
-0.074445858
-0.068367855
-0.039666178
-0.011639835
-0.004886499
0.002879837
-0.014003502
-0.032237509
-0.049458515
-0.082887527
-0.089640863
-0.070393856
-0.018730837
0.026516513
0.065010527
0.058594858
-0.003873498
-0.027847841
-0.003198165
-0.001509831
0.005581172
-0.001172164
-0.04574418
-0.104498202
-0.112939872
-0.087277196
-0.030886842
0.031243848
0.033607515
0.025503512
0.011659174
0.012672174
0.03630885
0.03732185
0.014022841
-0.038315511
-0.08896553
-0.127797211
-0.10787487
-0.029198508
0.032932182
0.058257191
0.035295849
-0.015691836
-0.052159849
-0.060601519
-0.077484859
-0.080861527
-0.006574833
0.017399509
0.005581172
-0.012652835
-0.032575176
-0.031224508
-0.031224508
-0.047094848
-0.052835183
-0.080186193
-0.096056532
-0.07106919
-0.043042846
-0.031224508
-0.025484173
-0.022445172
-0.029198508
-0.027847841
-0.034938843
-0.055536517
-0.098757867
-0.133199879
-0.145018217
-0.116654206
-0.038315511
0.013009841
0.050153188
0.065348194
0.034958182
-0.017717837
-0.045406514
-0.041692179
-0.009613834
-0.014341169
-0.038653178
-0.056549518
-0.056887185
-0.03527651
-0.013665835
0.002204504
0.011659174
-0.019068504
-0.064315854
-0.113952872
-0.141979216
-0.124082876
-0.163252224
-0.231460915
-0.180135563
-0.087277196
0.004568171
0.049815521
0.025503512
-0.012652835
-0.059250852
-0.093692865
-0.111926871
-0.157174221
-0.191953901
-0.159875556
-0.105173536
-0.083225194
-0.101796868
-0.115978873
-0.128810211
-0.078497859
-0.058575518
-0.028185507
-0.002860498
-0.014678836
0.022126844
0.10046554
0.164284563
0.173401567
0.149427224
0.109582543
0.100803207
0.124102215
0.119712547
0.088309535
0.042386852
0.011659174
0.045425853
0.106881209
0.14672589
0.132206218
0.125790549
0.162596229
0.20142791
0.22033725
0.221012584
0.218648916
0.202778577
0.179817236
0.170700232
0.159557228
0.149427224
0.139297221
0.13625822
0.219999584
0.28348094
0.260519598
0.202440911
0.135582886
0.067374194
-0.012652835
-0.180135563
-0.44351566
-0.705882756
-0.88957349
-1.029705208
-1.190096933
-1.261344626
-1.206642606
-1.037809211
-0.747753438
-0.412112648
-0.097069533
0.153816893
0.353040299
0.46345734
0.517146359
0.532679032
0.529977697
0.525588029
0.545848036
0.577588715
0.541458368
0.46447034
0.394573314
0.360468968
0.359455968
0.365196304
0.313195618
0.268961268
0.271324936
0.264909267
0.287870609
0.317585286
0.351014298
0.368910638
0.357429967
0.333117958
0.306779949
0.291584943
0.261532599
0.206492912
0.172388566
0.14672589
0.139297221
0.11093321
0.106205875
0.122413881
0.126465883
0.10147854
0.058594858
0.025165846
-0.013328169
-0.014678836
0.017737176
0.022464511
-0.000834497
-0.013665835
-0.051484516
-0.059588519
0.00152917
0.04677652
0.045425853
0.006594172
-0.050471516
-0.047770181
-0.021432172
-0.003873498
0.024828179
0.004905838
-0.049120848
-0.069380856
-0.050809182
-0.003535832
0.01841251
0.014022841
0.00895784
-0.013328169
-0.011302168
0.012672174
0.031919181
0.032256848
-0.019406171
-0.075458858
-0.101796868
-0.10787487
-0.059588519
-0.013328169
0.00895784
-0.024471173
-0.072757524
-0.098757867
-0.101459201
-0.096394199
-0.10888787
-0.133875213
-0.185538232
-0.250707922
-0.209850241
-0.10787487
-0.018055504
0.017061843
-0.032575176
-0.100108534
-0.142654549
-0.120030874
-0.063978187
-0.023120506
-0.024471173
-0.078160192
-0.113615205
-0.121719208
-0.084575861
-0.020419171
0.072101529
0.129842551
0.127478883
0.103842208
0.083919867
0.089660203
0.109582543
0.125115216
0.180154902
0.216285249
0.220674917
0.203791578
0.185219904
0.209531913
0.216622916
0.214596915
0.215272249
0.184206904
0.144699889
0.140647888
0.130180217
0.082906867
0.055555857
0.100127873
0.161920896
0.206155245
0.207168246
0.211220247
0.208181246
0.131193218
0.025841179
-0.041016845
-0.034938843
-0.037640177
-0.041354512
-0.005561832
-0.010289167
-0.040679179
-0.050471516
-0.043042846
-0.005899499
0.016724176
0.00051617
-0.037302511
-0.077484859
-0.096056532
-0.086939529
-0.085926529
-0.103485202
-0.133199879
-0.159537889
-0.15312222
-0.096394199
-0.070056189
-0.07106919
-0.146706551
-0.19836957
-0.21626591
-0.201408571
-0.138940215
-0.075458858
-0.031562175
-0.021094505
-0.070056189
-0.093692865
-0.070056189
-0.089640863
-0.135901214
-0.180135563
-0.20883724
-0.209850241
-0.158187222
-0.101459201
-0.063978187
-0.048107848
-0.051484516
-0.083225194
-0.079848526
-0.063302854
-0.055874184
-0.019406171
-0.0079255
-0.009613834
-0.021769838
-0.049120848
-0.074445858
-0.082549861
-0.070056189
-0.032237509
-0.038653178
-0.020081504
0.045088186
0.085608201
0.086283535
0.052854522
0.045425853
0.041711518
0.032256848
0.014360508
0.016724176
0.021451511
0.00152917
-0.019406171
-0.035614177
-0.029198508
-0.040003845
-0.022107505
-0.005561832
-0.016704836
-0.018055504
-0.03628951
-0.036627177
-0.012315168
0.011321507
-0.030211508
-0.085588862
-0.072419857
-0.021769838
-0.021094505
-0.013328169
0.007944839
0.023815178
0.01098384
-0.022782839
-0.02582184
-0.024808839
0.004905838
0.032594515
0.029893181
0.021789178
0.028542513
0.041036185
0.037997184
0.014022841
-0.011302168
-0.060939186
-0.111926871
-0.137927214
-0.169667893
-0.14569355
-0.056211851
0.036984183
0.095400538
0.104855208
0.073452197
0.015035842
-0.006237166
0.051841522
0.107894209
0.131193218
0.09101087
0.021451511
-0.003198165
-0.001847498
0.004568171
0.005581172
-0.015016503
-0.040341512
-0.045406514
-0.046757181
-0.025146506
-0.014003502
-0.065328854
-0.140290882
-0.190265567
-0.192629234
-0.151771553
-0.068367855
0.035633516
0.052516856
0.019087843
0.017399509
-0.0089385
-0.037302511
-0.023458172
0.050153188
0.120725547
0.16462223
0.158544228
0.179479569
0.221687918
0.217973583
0.20041491
0.168674231
0.135245219
0.114985212
0.089660203
0.071763863
0.048802521
0.045425853
0.060620859
0.06568586
0.119037213
0.170362565
0.181167903
0.207843579
0.180154902
0.124439882
0.082231533
0.0835822
0.077841865
0.051166188
0.044750519
0.057919524
0.100803207
0.143349222
0.215947582
0.278753605
0.24667526
0.175427567
0.102153874
0.030906181
-0.049120848
-0.195668235
-0.442164992
-0.719389427
-0.94528851
-1.083056561
-1.178616262
-1.214746609
-1.177940929
-1.056718551
-0.819338797
-0.52658169
-0.26151326
-0.031899842
0.241947925
0.449950668
0.562056042
0.59278372
0.548549371
0.500938353
0.502964354
0.484392681
0.466158674
0.464132673
0.430028327
0.385456311
0.339195961
0.335143959
0.33615696
0.335143959
0.337845293
0.328052957
0.330078957
0.329741291
0.305091615
0.275376937
0.259844265
0.218986583
0.199401909
0.187583572
0.169011898
0.151115558
0.139634888
0.10890721
0.078179532
0.065348194
0.068387195
0.10147854
0.150102558
0.139297221
0.084257534
0.026854179
0.017061843
0.034620516
0.072776863
0.072101529
0.039010184
0.010646174
-0.013328169
-0.011977501
-0.025146506
-0.031562175
-0.023458172
-0.031224508
-0.047094848
-0.064315854
-0.082549861
-0.07951086
-0.054523517
-0.053510517
-0.075796525
-0.103485202
-0.102472201
-0.052497516
0.01942551
0.030230847
-0.054523517
-0.174395228
-0.229097248
-0.231123248
-0.175070561
-0.148057218
-0.179460229
-0.188577233
-0.162914557
-0.13522588
-0.121043875
-0.085588862
-0.06161452
-0.057562518
-0.04371818
-0.078160192
-0.133199879
-0.130160878
-0.094030531
-0.093355198
-0.148057218
-0.212551575
-0.244292253
-0.228084247
-0.184187565
-0.17304456
-0.201070904
-0.194655235
-0.163927557
-0.158862555
-0.161226223
-0.147044218
-0.111589205
-0.0984202
-0.129485544
-0.171693893
-0.178447229
-0.173719894
-0.134550546
-0.050471516
0.017737176
0.043062185
0.04677652
0.057581857
0.095738205
0.115660545
0.110257877
0.111608544
0.07311453
0.029893181
0.026854179
0.023139845
0.042049185
0.095738205
0.147401224
0.205479912
0.264909267
0.315559285
0.327377623
0.33716996
0.326364623
0.292260277
0.238571257
0.178804235
0.155505227
0.152803892
0.151790892
0.134907552
0.127141216
0.122751548
0.106543542
0.104855208
0.118024213
0.095738205
0.096413538
0.102153874
0.103842208
0.113972211
0.12882955
0.12038788
0.09202387
0.059607858
0.00895784
-0.013665835
-0.007587833
0.021789178
0.028542513
-0.027847841
-0.105173536
-0.104160535
-0.059926186
-0.016029503
0.061296192
0.058257191
0.03630885
0.022126844
-0.008263167
0.026516513
0.047451854
0.034282849
0.027191846
-0.006574833
-0.058575518
-0.083225194
-0.068705522
-0.037302511
-0.030549175
-0.041692179
-0.062965187
-0.049796182
-0.022107505
-0.004548832
-0.0089385
-0.031562175
-0.060601519
-0.060263852
-0.055874184
-0.06262752
-0.046757181
-0.038990845
-0.054523517
-0.064315854
-0.059926186
-0.072419857
-0.095718865
-0.076134192
-0.056549518
-0.017717837
0.040360851
0.051503855
0.051503855
0.026516513
0.016048842
0.01942551
-0.003873498
-0.06161452
-0.106524203
-0.092004531
-0.072757524
-0.079173193
-0.048107848
0.001866837
0.03833485
0.078179532
0.102829207
0.126465883
0.126128216
0.098439539
0.039685518
-0.010964501
-0.030211508
-0.023458172
-0.005899499
0.016048842
0.011659174
-0.012315168
-0.017717837
-0.01839317
0.00051617
0.034958182
0.043737519
0.003892838
-0.048445515
-0.083900528
-0.10888787
-0.094368198
-0.075458858
-0.069380856
-0.074108191
-0.021769838
0.059945525
0.098777206
0.116673546
0.097426539
0.054542856
-0.029536175
-0.107537203
-0.109900871
-0.072757524
0.014698175
0.053192189
0.014360508
-0.030886842
-0.055536517
-0.049458515
-0.035614177
-0.058237852
-0.06262752
-0.102134534
-0.153459887
-0.184525231
-0.198707237
-0.204785239
-0.236525917
-0.2804226
-0.278396599
-0.164940557
0.004230505
0.130855551
0.170700232
0.152128559
0.115660545
0.081218533
0.066023527
0.041711518
0.042724519
0.053529856
0.077841865
0.073452197
0.086958868
0.092361537
0.107218876
0.128491883
0.126803549
0.090673203
0.041711518
0.01098384
-0.019406171
-0.0089385
0.001191503
-0.009613834
-0.014678836
-0.020419171
0.001866837
0.013009841
-0.013665835
-0.037302511
-0.032912842
-0.034601176
-0.021769838
0.015035842
0.041373851
0.075478197
0.098777206
0.101816207
0.097426539
0.068387195
-0.01738017
-0.184187565
-0.425281653
-0.705207422
-0.926041503
-1.012146535
-1.06313422
-1.105342569
-1.133368913
-1.054017217
-0.847365141
-0.592089047
-0.377670635
-0.162914557
0.067711861
0.30880595
0.549562371
0.684966754
0.651875409
0.55597804
0.495535685
0.50127602
0.515458025
0.491146016
0.443534999
0.385793978
0.321637288
0.27301327
0.270987269
0.243973926
0.200077243
0.188258905
0.175427567
0.152128559
0.111946211
0.04677652
-0.024471173
-0.056549518
-0.053848183
-0.087952529
-0.106186536
-0.093017531
-0.092342198
-0.077822526
0.008620173
0.133219218
0.229791921
0.270987269
0.320961954
0.39187198
0.438807664
0.427326993
0.428339993
0.417872323
0.413820321
0.41922299
0.40132665
0.352364965
0.294623944
0.226077586
0.146050557
0.084932867
0.051503855
-0.019068504
-0.122732209
-0.184525231
-0.142992216
-0.114965873
-0.10787487
-0.112264538
-0.16358989
-0.194655235
-0.200057904
-0.181148563
-0.126446543
-0.07951086
-0.102134534
-0.121719208
-0.164602891
-0.196005902
-0.194317568
-0.1889149
